bpm,ibi,sdnn,sdsd,rmssd,pnn20,pnn50,hr_mad,sd1,sd2,s,sd1/sd2,breathingrate
65.29106628242074,918.9618644067797,49.59653959231896,21.4098237998982,39.67727434108763,0.7068965517241379,0.15517241379310345,31.25,28.032779179587422,63.825950449661256,5620.996558836239,0.4392066076900262,0.36666666666666664
58.948587979724834,1017.8360849056604,49.349424989742914,28.18559267952837,44.70907477445155,0.6153846153846154,0.23076923076923078,31.25,31.612483433202264,61.079230111405195,6065.994911935196,0.5175651915641833,0.13333333333333333
65.6981296215746,913.2680084745763,74.62630511134772,25.872239491726578,45.40390973096655,0.7241379310344828,0.2413793103448276,62.5,32.10527118116461,101.36172796052935,10223.514583789092,0.31673958038350064,0.36666666666666664
59.58717610891524,1006.9280660377359,40.11438611645897,26.72547989463707,43.56556677898313,0.6538461538461539,0.21153846153846154,23.4375,30.805324512175396,48.22915258448867,4667.510375265415,0.6387282973344823,0.3
62.950819672131146,953.125,55.75332559347597,29.277907944302324,50.422134924464565,0.6909090909090909,0.3090909090909091,39.0625,35.636710595191786,68.86524197423122,7709.878972739565,0.5174847219519934,0.3
59.82363315696649,1002.9481132075472,44.252151463808666,21.64296046318402,42.57081910679047,0.7307692307692307,0.2692307692307692,31.25,30.10136500833807,54.64455731571781,5167.529620898197,0.5508575142154147,0.16666666666666666
62.20048899755501,964.622641509434,47.03695913957342,26.485725235828106,43.346573085819756,0.6862745098039216,0.21568627450980393,31.25,30.647593231191436,57.134784089032195,5501.065779344229,0.5364086645262157,0.13333333333333333
60.63157894736842,989.5833333333334,41.856123094587474,20.530174381663432,37.390514306993815,0.6792452830188679,0.1509433962264151,19.53125,26.41853248451152,51.07792246942625,4239.276920292568,0.5172201845195423,0.16666666666666666
59.352580927384075,1010.9080188679245,71.41496192754605,26.460654556169956,46.560947154023914,0.7307692307692307,0.2692307692307692,54.6875,32.90281573761061,96.11692453317336,9935.341610328762,0.34232072964688626,0.3
57.995933778681376,1034.5552884615386,38.130287412843096,20.067986632704045,36.49660980931694,0.6666666666666666,0.21568627450980393,23.4375,25.806772963108262,47.918419853464314,3884.9556221299217,0.5385564265688643,0.13333333333333333
60.65035614741406,989.2769607843137,47.834361199365915,27.667107096280436,49.30964739815741,0.7142857142857143,0.3469387755102041,39.0625,34.84092953983145,56.82868561446994,6220.241083532535,0.6130870204564456,0.13333333333333333
61.65137614678899,973.2142857142857,47.10363564769568,21.82790828416648,38.820271692998,0.6363636363636364,0.23636363636363636,31.25,27.414036730582065,60.41809526785378,5203.432110520148,0.45373884444794893,0.3
58.0869049384547,1032.9350490196077,61.793527963366536,31.549545719721277,54.27596614190995,0.7346938775510204,0.3673469387755102,39.0625,38.37873812356666,79.90634964137831,9634.3374818271,0.4802964757595785,0.13333333333333333
59.05977945443993,1015.9198113207547,48.56339827815688,25.842656356543678,46.9625584485519,0.7692307692307693,0.25,31.25,33.18697532978984,59.68562831914479,6222.821095247941,0.5560295881001016,0.3
57.02970297029703,1052.0833333333333,53.22732600132786,30.577130955993894,49.36115312166036,0.66,0.3,39.0625,34.90360609951355,67.48661614998191,7400.104016021571,0.5171930093804668,0.1
62.959873435926944,952.9879385964912,32.50927760332563,19.294140302123,32.89808672146506,0.5357142857142857,0.125,15.625,23.227084477808354,38.783356684984646,2830.0230095114916,0.5988930939234804,0.13333333333333333
62.457159453964564,960.6584821428571,54.54709906331313,19.769339116712278,38.18619343844293,0.7454545454545455,0.18181818181818182,39.0625,26.926888094016466,71.40423104411997,6040.320524805064,0.37710493762447506,0.3333333333333333
60.2754331408263,995.4304245283018,47.447223753543604,23.504338712683317,43.67320268554277,0.75,0.2692307692307692,31.25,30.87266263482306,59.865373436639885,5806.30246762093,0.5157014959156309,0.3333333333333333
68.82914137033825,871.7237903225806,56.25889664006617,22.876140944432485,39.87374814957708,0.6557377049180327,0.19672131147540983,35.15625,28.19485226601847,73.45697874607704,6506.57976252064,0.3838280956732679,0.36666666666666664
61.989045834534444,967.9129464285714,50.58078933548489,24.164432724239514,38.38908166274743,0.5818181818181818,0.16363636363636364,31.25,27.097567249228224,65.397702590628,5567.274912948685,0.4143504462053001,0.26666666666666666
62.24023154848046,964.0066964285714,40.316873514439,21.08789040897231,33.69352914507473,0.5272727272727272,0.12727272727272726,23.4375,23.823017378677985,52.319797236335305,3915.729585886785,0.4553346655963961,0.1
56.22254758418741,1067.1875,62.35660633939813,34.49906588409315,64.6599428017455,0.7857142857142857,0.6071428571428571,39.0625,45.69423235699614,76.81255695166517,11026.647231615647,0.594879719806093,0.16666666666666666
60.96704354101515,984.1382575757576,43.54001489610852,27.9578365579313,38.780230143721425,0.44,0.2,23.4375,26.813155586390796,46.37441037361015,3906.3954170018615,0.5781886038091626,0.16666666666666666
63.20531331215709,949.2872807017544,35.15618320588026,23.642133218468636,40.42004877770392,0.6964285714285714,0.21428571428571427,23.4375,28.57294759799519,39.540753543444794,3549.358433466159,0.7226202092127836,0.3333333333333333
59.08549862098998,1015.4775943396227,63.839756105900896,31.38945572985536,54.31060026442104,0.75,0.36538461538461536,39.0625,38.403246795736955,82.22219901694037,9919.89108095932,0.46706664690182603,0.1
66.4661034411704,902.7157738095239,98.4410781685095,26.248758079599295,39.69089153416722,0.5675675675675675,0.21621621621621623,27.34375,27.574914095877002,121.51508419147765,10526.74815760683,0.2269258526984664,0.2
61.74397031539888,971.7548076923077,33.362838658129824,19.537346213018452,30.901534976620344,0.5161290322580645,0.12903225806451613,23.4375,21.844144006434064,43.98313251824302,3018.3601649991697,0.49664820934192677,0.13333333333333333
58.36036825953529,1028.094951923077,63.54777561184998,25.0027031410578,43.70401995576743,0.6862745098039216,0.2549019607843137,46.875,30.89657410656546,84.89339536447481,8240.13074957401,0.36394555753031754,0.13333333333333333
58.948587979724834,1017.8360849056604,50.113588880166404,25.57928035853981,44.57761587545282,0.7115384615384616,0.25,23.4375,31.519523216420154,62.38170014243474,6177.129681683633,0.505268742987965,0.13333333333333333
61.31514007838583,978.5511363636364,48.85083407871303,28.3047643465486,43.02789490067267,0.5740740740740741,0.18518518518518517,31.25,30.391587975696485,61.81506442145808,5901.978072724265,0.49165342235163223,0.26666666666666666
61.160409556313994,981.0267857142857,29.926534995071254,17.359754721319508,40.969095631646546,0.875,0.25,23.4375,23.760791133977417,22.439697838039177,1675.0499955611022,1.0588730430094633,0.2185473883587091
60.35802648813855,994.0682870370371,37.73601897350244,23.13564593595343,37.94085399833063,0.5660377358490566,0.20754716981132076,27.34375,26.82499531466185,46.61166501284966,3928.114550788187,0.5754996159709566,0.0
56.633892423366106,1059.436274509804,78.72135186407179,48.89127166798282,70.94335052966557,0.8,0.4,54.6875,50.161482398412524,100.34054563164509,15812.360005189124,0.4999123941637482,0.3
62.20422331501302,964.5647321428571,46.359805649279494,26.021858858078378,45.76090825619415,0.7454545454545455,0.2727272727272727,35.15625,32.35644551114511,56.40259948181276,5733.367752726587,0.5736694019143316,0.3333333333333333
62.22746022392457,964.2045454545455,41.27783230217056,23.756826707298625,40.65058845127811,0.6296296296296297,0.2777777777777778,23.4375,28.744306753122306,51.417995047028114,4643.1942154913895,0.559032041736207,0.3
57.87490580256217,1036.71875,52.20363710090035,36.694357699738774,57.33069069076167,0.6808510638297872,0.2978723404255319,31.25,40.432284176777564,58.65543239274171,7450.516663016119,0.6893186620133217,0.13333333333333333
61.06007067137809,982.6388888888889,39.4559658936233,18.338275857478372,33.66469780870068,0.6136363636363636,0.1590909090909091,31.25,23.78830683120045,50.31645075979836,3760.307867534981,0.472773943153533,0.3
62.65045405571802,957.6945754716982,49.467283982522346,26.938145017928026,44.83937837371496,0.6274509803921569,0.27450980392156865,39.0625,31.694384571407063,61.15874481015102,6089.627944506428,0.5182314429407074,0.1
60.11519716437749,998.0837264150944,38.9563906812605,25.64760972604945,42.5945998775137,0.6470588235294118,0.21568627450980393,15.625,30.006528479143757,43.05978710633648,4059.1724737261684,0.6968573347806482,0.13333333333333333
59.766536964980546,1003.90625,39.31486764568444,20.780538785317408,37.65139936855439,0.6792452830188679,0.11320754716981132,23.4375,26.62335578004457,49.3751756754088,4129.726803237288,0.5392052871885634,0.13333333333333333
67.33937041828375,891.0092213114754,48.60260377550156,25.173012444988693,36.9754986443726,0.5166666666666667,0.15,31.25,26.12940947469972,63.78640326029847,5236.09577348884,0.4096391729138774,0.36666666666666664
68.53195164075993,875.5040322580645,37.30604896239273,20.91174468430925,34.06858589789085,0.639344262295082,0.09836065573770492,27.34375,24.007598234610864,44.76979813141772,3376.6319339610936,0.5362453983852845,0.36666666666666664
69.3302271403611,865.4233870967741,46.05762823209946,19.456256353609405,32.781381614153894,0.5737704918032787,0.09836065573770492,23.4375,23.145237241794923,60.55343580081417,4403.016363137426,0.3822283068780669,0.3333333333333333
66.29261976694,905.078125,37.78712238102475,25.124028020405557,34.99772995059701,0.5254237288135594,0.13559322033898305,19.53125,24.661252428763913,41.157506909214575,3188.7029315849827,0.5991920862252862,0.13333333333333333
66.42040457343887,903.3368644067797,38.05366523248033,17.839259839594078,31.41792168176826,0.5689655172413793,0.08620689655172414,23.4375,22.20847397147085,48.701204322937016,3397.881987117206,0.45601488259318523,0.3333333333333333
70.76302908148574,847.900390625,48.82751464462275,15.507439135478315,28.831245193448755,0.6031746031746031,0.06349206349206349,42.96875,20.379979054765382,66.41119971215736,4252.016408796448,0.30687563457816264,0.4
66.81214980831614,898.0402542372881,35.15768384592392,14.83432482719182,25.24126319883391,0.5263157894736842,0.03508771929824561,23.4375,17.816400908217403,43.45019435929306,2431.988812933553,0.41004191513833493,0.3333333333333333
68.86896152733584,871.2197580645161,55.39828155762813,19.31664974498245,33.009508107699745,0.5573770491803278,0.11475409836065574,39.0625,23.341071340253503,75.40054318409337,5528.981454687251,0.3095610502866719,0.23333333333333334
64.5097755249819,930.0915948275862,27.19604556422725,15.104141791618323,29.6319020015265,0.631578947368421,0.05263157894736842,19.53125,20.9448481303652,31.098142107218806,2046.2633799445646,0.6735080204519124,0.13333333333333333
70.69549970777324,848.7103174603175,36.25318524181009,16.192404013961788,30.273945592770566,0.6129032258064516,0.0967741935483871,31.25,21.391887026813002,46.40254461004519,3118.4642235132865,0.4610067660423541,0.3333333333333333
67.32904734073641,891.1458333333334,32.08096582173853,15.105789201667008,27.329558968856475,0.5254237288135594,0.03389830508474576,19.53125,19.324009136744685,41.05107804923323,2492.135625465842,0.47073085665543507,0.13333333333333333
72.44231606443188,828.2451923076923,25.175626633816393,13.997159260961096,26.672852116694653,0.578125,0.03125,15.625,18.857394059890154,30.39869421990472,1800.8870622380296,0.62033566058711,0.36666666666666664
66.7729314592088,898.5677083333334,31.331003954721336,17.46074759732726,32.610734591438145,0.5932203389830508,0.1016949152542373,23.4375,23.031881636737147,37.25789729369641,2695.8618558477656,0.6181744894292214,0.3333333333333333
66.65702300014465,900.1302083333334,34.20565729674597,16.64012507670022,30.496069618595172,0.5932203389830508,0.1016949152542373,19.53125,21.50515047739596,42.01258699456642,2838.388138347579,0.5118739886257723,0.3333333333333333
68.31146106736658,878.3299180327868,29.34985872828574,17.602221138796583,29.834477180702084,0.5333333333333333,0.08333333333333333,15.625,21.095960210852738,34.676877400948044,2298.2070543188515,0.6083581277210384,0.3333333333333333
72.21177491682337,830.8894230769231,49.57054846527249,16.402453028584457,26.54741644349255,0.453125,0.078125,31.25,18.76689626435832,67.34957773788491,3970.792594627199,0.27864905608460444,0.3
66.87953555878084,897.1354166666666,29.65207133070789,19.460988422535845,32.227816407937546,0.5084745762711864,0.0847457627118644,19.53125,22.788507524887724,35.38486436603874,2533.2805636046505,0.6440185071546976,0.3333333333333333
68.7595667870036,872.6058467741935,34.12865097137177,17.18003536200202,28.9565703457527,0.5245901639344263,0.06557377049180328,19.53125,20.472182589278514,43.53924291854395,2800.2376599535637,0.47020070210176157,0.13333333333333333
66.89895470383276,896.875,35.42432515235823,17.44668336017013,31.82404430741807,0.5932203389830508,0.0847457627118644,23.4375,22.49345060125643,44.695199416369114,3158.397850090398,0.5032632339709051,0.3333333333333333
69.86859205776173,858.7549603174604,26.275054892834017,12.020403243661109,24.34402757202307,0.532258064516129,0.0,23.4375,17.213826977569795,33.15616753972352,1793.046826508465,0.5191742066373132,0.1
68.61095100864553,874.4959677419355,41.85744376643478,15.792072378891756,31.631887897613908,0.6557377049180327,0.08196721311475409,23.4375,22.36052132556893,53.67345425376657,3770.4340033137555,0.41660298627043857,0.3333333333333333
72.81712397644016,823.9820075757576,49.80615568932403,16.22640668905046,27.236224023136202,0.47692307692307695,0.07692307692307693,31.25,19.222128467421275,67.54625904342767,4078.990082252118,0.2845772473507785,0.1
64.0091967236672,937.3653017241379,35.57998290362003,21.54699425423339,32.75566820173427,0.543859649122807,0.08771929824561403,23.4375,23.095964917736215,42.792361331180636,3104.9330195210523,0.5397216745996054,0.36666666666666664
72.81213535589265,824.0384615384615,49.298483423178894,15.455759932742607,26.3671875,0.46875,0.0625,31.25,18.634623953298036,67.04755669209253,3925.1247296264437,0.277931439603015,0.36666666666666664
67.08864384934841,894.3391393442623,62.285212343025925,23.191708868538676,37.46743377588062,0.5166666666666667,0.2,31.25,26.34909680318758,79.34186856386016,6567.771426765683,0.3320957431444899,0.36666666666666664
70.79360506985454,847.5341796875,46.177926223718416,15.678056179840386,29.13210111674389,0.6031746031746031,0.06349206349206349,15.625,20.55167335750364,60.61261336331562,3913.452535584353,0.339065950420512,0.3333333333333333
63.498694516971284,944.9013157894736,26.480178026451366,15.644295125562083,28.761855814401006,0.5178571428571429,0.07142857142857142,15.625,20.325976920827035,31.34436858415519,2001.5241124856955,0.6484730061240399,0.23333333333333334
68.81919352507587,871.8497983870968,50.40590340670071,18.220716438297888,31.32994385025029,0.5737704918032787,0.09836065573770492,27.34375,22.148987667528242,68.14968878108995,4742.066400937047,0.3250049716099966,0.13333333333333333
69.06875543951261,868.6995967741935,34.36579759284292,13.504345177350903,22.344744116942564,0.4426229508196721,0.03278688524590164,23.4375,15.7686847878698,45.71193112999454,2264.5134955610533,0.34495774731168494,0.13333333333333333
69.1891891891892,867.1875,28.481167731021504,14.495552066517327,27.55789244414592,0.5081967213114754,0.01639344262295082,15.625,19.45077565852895,34.35267050095567,2099.168502732731,0.5662085472507252,0.3333333333333333
68.04357298474946,881.7879098360655,26.217298323614727,14.182550837698022,26.95029423540678,0.6,0.03333333333333333,23.4375,19.048727094119698,31.76336148477519,1900.825675788157,0.5997075310574459,0.3333333333333333
69.24956369982549,866.4314516129032,36.474492077176095,18.150362436533683,32.87282218679422,0.5901639344262295,0.11475409836065574,23.4375,23.22694716763044,45.64064745410864,3330.3800891089354,0.5089092390940548,0.36666666666666664
71.51462243561764,838.9892578125,29.672628994763446,15.111678580052008,29.148724285638277,0.6190476190476191,0.06349206349206349,23.4375,20.606596980969886,36.509124336374185,2363.5106667513032,0.5644232053092397,0.36666666666666664
69.86859205776173,858.7549603174604,41.65042436637614,18.364783815089872,30.273945592770566,0.4838709677419355,0.12903225806451613,23.4375,21.405243276626457,55.222090822981635,3713.4953691867977,0.38762102190665865,0.1
66.29261976694,905.078125,25.14706904154455,14.164100201042455,27.61199388016258,0.6101694915254238,0.03389830508474576,15.625,19.522607431413242,29.941369999276386,1836.36650266357,0.6520278608455478,0.3
67.83666377063423,884.4774590163935,50.07668048482715,16.147933331174475,29.54323500185787,0.6166666666666667,0.1,39.0625,20.88697521200579,68.22245712874923,4476.646289671151,0.30615982025666344,0.3333333333333333
74.58472242353965,804.4542910447761,25.46680231791226,12.66793204977207,24.079742199097563,0.4696969696969697,0.015151515151515152,15.625,17.021804997980144,31.67453061479,1693.8138176965083,0.537397229496182,0.1
69.3201339350706,865.5493951612904,25.76395042044668,16.058837049940234,27.990199497865817,0.5573770491803278,0.04918032786885246,15.625,19.79019507122322,30.775836576711267,1913.4178225979895,0.643043285659987,0.3333333333333333
68.03257608229747,881.9304435483871,49.233045613161295,23.13212268736951,37.45407878213043,0.6065573770491803,0.16393442622950818,31.25,26.483413732516443,62.33825504105073,5186.548930063817,0.4248340559914084,0.3333333333333333
66.7729314592088,898.5677083333334,43.43945932581455,17.321615917126937,31.644752490254866,0.6271186440677966,0.1016949152542373,27.34375,22.35662072199216,57.02256564050458,4005.002445584052,0.3920662017022904,0.36666666666666664
83.93442622950819,714.84375,32.17434340847451,18.19371552823178,26.730473792409043,0.37333333333333335,0.05333333333333334,23.4375,18.864522938427157,40.32676319593616,2389.9513724277067,0.46779164612765617,0.3333333333333333
82.53267499273889,726.9847972972973,40.876218846520544,15.766564093067547,27.016912867822892,0.5068493150684932,0.0410958904109589,23.4375,19.060476764463342,52.96230558452296,3171.3962990245736,0.3598875946600281,0.3333333333333333
82.92542470486612,723.5416666666666,32.24694483806007,18.667260224071235,27.093753409551205,0.4189189189189189,0.04054054054054054,15.625,19.110994086122904,36.6222707421341,2198.762997795188,0.521840773355859,0.3
80.25544267053702,747.6128472222222,33.84512321340883,17.3555912531375,27.768797758658323,0.4647887323943662,0.08450704225352113,23.4375,19.635351043634905,43.66457288829253,2693.504833013468,0.44968608977049196,0.1
81.96491228070175,732.0205479452055,32.21656247937429,12.991865926298408,20.99546288619414,0.3472222222222222,0.013888888888888888,23.4375,14.78165695279001,41.73668523708461,1938.1658889631315,0.35416461247037306,0.13333333333333333
83.00907911802854,722.8125,33.39902381307973,15.00195917933413,23.717360662403827,0.43243243243243246,0.05405405405405406,23.4375,16.76472402135068,43.941753581744436,2314.321369794944,0.3815215064224376,0.3333333333333333
73.43958272964359,816.998106060606,76.06250775760103,22.831477171923655,36.41251699938868,0.5846153846153846,0.15384615384615385,39.0625,25.702050778122423,103.72617044724481,8375.408416677155,0.247787522351406,0.1
80.7373271889401,743.1506849315068,50.281893540558116,19.658332222505532,29.361906989009587,0.4444444444444444,0.08333333333333333,31.25,20.686871012578578,66.49656671074474,4321.593384411047,0.31109682854101284,0.1
80.5170185264972,745.1840753424658,44.111424056343616,21.44131267653116,32.32997140087275,0.4444444444444444,0.1111111111111111,31.25,22.857522906654093,58.39806048654573,4193.5078463276595,0.3914089392047569,0.1
80.86542622241454,741.9734589041096,28.798670680859775,15.54302801041646,26.605230132425195,0.4861111111111111,0.06944444444444445,15.625,18.811330449842874,36.33208846339094,2147.136962070814,0.5177607796699496,0.3333333333333333
78.59325454021331,763.4242957746479,56.40053303954592,17.58335027212084,28.152887959256127,0.44285714285714284,0.08571428571428572,23.4375,19.89442323799754,76.14932538412451,4759.346078258591,0.26125541017787,0.13333333333333333
81.14633087277464,739.4049657534247,34.586683384652495,17.573770787020077,27.17270410769428,0.4305555555555556,0.05555555555555555,15.625,19.213850144717387,45.31948121890613,2735.5786250183337,0.4239644768197801,0.26666666666666666
82.55697291099325,726.7708333333334,52.755660570428105,18.604161130359053,27.59148155332425,0.43243243243243246,0.06756756756756757,39.0625,19.48597175909861,71.20144861585655,4358.738063618911,0.27367381054602713,0.26666666666666666
84.78791400348635,707.6480263157895,28.318027014594566,12.678414234437996,20.610790559801437,0.3333333333333333,0.013333333333333334,15.625,14.547202265384225,36.536374806865794,1669.7628865114116,0.3981566956842846,0.1
79.09598054641683,758.5720486111111,27.34870125752467,20.781803606190312,30.029534500913417,0.4507042253521127,0.04225352112676056,23.4375,21.230523411453866,31.69300621582278,2113.8492382730224,0.6698803914932656,0.3
85.18582541054451,704.3425324675325,24.707377560645128,14.329637001008738,23.40320956466509,0.3815789473684211,0.039473684210526314,15.625,16.54601380201052,30.223088394794242,1571.0213833286675,0.5474627075127265,0.26666666666666666
79.82676483326115,751.6276041666666,41.665395081508315,20.759069266328044,32.225103666831366,0.49295774647887325,0.11267605633802817,27.34375,22.781806638413848,54.62292411918272,3909.425843561317,0.4170740949112468,0.3
83.69659982563208,716.875,30.534517694460696,15.99755860811456,24.92135539681157,0.4189189189189189,0.02702702702702703,31.25,17.618105834130915,39.59987217088166,2191.809834400853,0.4449030986288323,0.3
83.50246448245869,718.5416666666666,33.65663526293474,12.772311769287679,20.50969766914495,0.32432432432432434,0.013513513513513514,23.4375,14.474852044390442,44.55436622890454,2026.0692083016445,0.3248806630987361,0.3333333333333333
82.13903743315508,730.46875,33.6212371833366,14.745551926070066,23.005435303646703,0.3835616438356164,0.0410958904109589,31.25,16.26571506161244,44.90631161831269,2294.723792617932,0.36221445216576903,0.3333333333333333
87.81589231437256,683.2476265822785,23.348243424897742,11.834602929408058,17.66970003364081,0.2692307692307692,0.01282051282051282,15.625,12.492557996386662,30.71124816580612,1205.309874137028,0.4067746751594377,0.3333333333333333
83.9948193984746,714.3297697368421,38.36414239546796,15.70258515517606,24.13881297136764,0.37333333333333335,0.04,23.4375,17.068082623553366,51.83147437716886,2779.253568829799,0.3292995776919603,0.26666666666666666
77.69908946379535,772.2098214285714,36.34847774450964,21.772718052149273,31.00846421234001,0.43478260869565216,0.08695652173913043,23.4375,21.873464498123088,43.40079219885854,2982.3946052495944,0.5039876783331704,0.3
82.0441749675184,731.3133445945946,30.143457136746992,17.240608360960845,28.580898798201112,0.5205479452054794,0.0821917808219178,23.4375,20.20847217794892,37.434557740786296,2376.599821224859,0.5398346714253035,0.1
83.36951801997395,719.6875,32.77428330007131,13.091216216216216,20.70979701898518,0.2702702702702703,0.013513513513513514,23.4375,14.616611739760792,43.46996362316814,1996.1163890916866,0.3362462381259181,0.3
87.12234348075819,688.6867088607595,23.522676436402676,19.394915773172485,25.546167436096493,0.32051282051282054,0.02564102564102564,15.625,18.05498016818864,25.920034612059297,1470.2204712840144,0.696564662756606,0.2
81.65517241379311,734.7972972972973,34.09968960823296,14.806786904600957,24.637515507386542,0.4931506849315068,0.0136986301369863,23.4375,17.410832158817577,43.78605483787489,2394.9983483668607,0.39763418337833956,0.3333333333333333
79.5100612423447,754.6214788732394,30.401595843889304,17.102133199717144,26.982628133340587,0.4,0.04285714285714286,15.625,19.066374491245934,38.41304818426623,2300.8948003852183,0.49635151055404697,0.3
84.98993963782696,705.9659090909091,31.650965845393745,13.939008281237074,21.638019686893593,0.35526315789473684,0.039473684210526314,23.4375,15.298836438018169,42.26774437165474,2031.5024314781656,0.3619506237072294,0.1
80.62992125984252,744.140625,39.35976302133292,15.936502632246189,26.727686453402743,0.4647887323943662,0.04225352112676056,27.34375,18.863257670862417,51.719826836508375,3064.9516796538733,0.36472004692689886,0.3
86.32944228274967,695.0120192307693,32.125221455032595,12.911490280509986,21.790042582863094,0.38961038961038963,0.012987012987012988,19.53125,15.370259085599368,41.9625734016626,2026.250685502206,0.36628494964968905,0.3
84.5913043478261,709.2927631578947,29.486524036689612,15.148999554426029,24.105075969596115,0.41333333333333333,0.02666666666666667,15.625,16.993220155403154,36.569325098973934,1952.281783615615,0.46468509083532283,0.3
80.93546990038979,741.3313356164383,24.177171135673895,14.557329841391342,24.27259359675423,0.4444444444444444,0.05555555555555555,15.625,17.163144032434758,29.672929684500634,1599.95271320394,0.5784108348896793,0.3333333333333333
81.93771626297577,732.2635135135135,31.988149183126858,14.79982355570422,24.890734035762005,0.410958904109589,0.0273972602739726,23.4375,17.587224278247536,41.60278409178242,2298.632641272156,0.4227415222848379,0.3
81.70212765957447,734.375,29.770184961992307,15.461382925830623,25.943826621316763,0.4166666666666667,0.05555555555555555,15.625,18.329003847149977,37.45329031768316,2156.645244517691,0.48938300725199935,0.3
84.73867595818815,708.0592105263158,32.77630819634808,11.897821637687388,19.47387405816658,0.37333333333333335,0.0,23.4375,13.73144265403716,43.464220398634914,1874.9855904936694,0.3159252030313288,0.3
86.0285132382892,697.4431818181819,27.227878437856344,11.922126467252756,19.572325229386223,0.3026315789473684,0.0,23.4375,13.838005846742128,35.918285291957766,1561.4891759537627,0.38526354290750364,0.3
82.0797227036395,730.9966216216217,42.22972972972973,24.27409106791611,35.73124253458125,0.4931506849315068,0.1232876712328767,31.25,25.260250162841086,52.815589166160166,4191.308698670835,0.47827261915740876,0.3
85.27100073046019,703.6389802631579,23.923669476345516,14.2636082683637,22.33518921082455,0.3333333333333333,0.02666666666666667,15.625,15.791817831290565,29.253405250500318,1451.3041118493059,0.5398283617262124,0.13333333333333333
82.26983207874927,729.3074324324324,24.91911907420934,14.217227658746245,23.005435303646703,0.410958904109589,0.0136986301369863,15.625,16.265715061612436,31.453482875800823,1607.280867983092,0.5171355784617001,0.3333333333333333
58.309242225142356,1028.9963942307693,60.19129338116491,29.617685748347235,55.57749196714298,0.8235294117647058,0.45098039215686275,35.15625,39.17347749547302,69.10636766320994,8504.720889773278,0.5668577125393867,0.23333333333333334
55.72485851110144,1076.71875,58.12184971301671,30.34116127728308,57.4532931974721,0.8163265306122449,0.5102040816326531,50.78125,40.609966922672285,71.84181011438065,9165.576248314681,0.5652692611449575,0.3333333333333333
57.27153092557392,1047.640931372549,67.75995337304947,30.5487731187768,59.26181646410275,0.78,0.54,46.875,41.90312138768722,86.75808511044517,11421.054543204478,0.4829880850222031,0.3
63.03693570451436,951.8229166666666,105.24345793619693,37.22658420717653,58.573714523264485,0.7307692307692307,0.36538461538461536,89.84375,41.378476742184056,144.33820586645638,18763.146712336948,0.28667722792999084,0.16666666666666666
61.080432172869145,982.311320754717,82.4307425229098,50.59323141368707,74.8389815655231,0.7843137254901961,0.39215686274509803,62.5,52.7414803842649,100.6693763623179,16680.135205237442,0.5239078882781958,0.13333333333333333
55.72634384717903,1076.6900510204082,54.57745554903215,33.725199437225285,58.40899692020022,0.7083333333333334,0.375,39.0625,41.30123745283381,66.14233693571502,8582.078289236673,0.6244296673849801,0.2
60.755933196601234,987.5578703703703,60.711507404645346,41.070402005057936,52.60523692790069,0.49056603773584906,0.1509433962264151,39.0625,37.164647555038954,76.67857697642938,8952.698021780889,0.4846809763627093,0.1
55.49481621112159,1081.1820652173913,59.55346865994061,31.89110264648717,62.38892829324403,0.8863636363636364,0.4772727272727273,39.0625,44.0899000257951,72.8463498546419,10090.130472670218,0.6052451511128888,0.26666666666666666
56.07544873745056,1069.9869791666667,44.10657141125136,24.768843796315196,47.841596538733945,0.8260869565217391,0.2608695652173913,31.25,33.752077430396746,49.61637788177508,5261.086446792162,0.6802608104690859,0.3333333333333333
60.10127359214363,998.3149509803922,46.24043846710312,18.916186160668225,44.26458039074094,0.8367346938775511,0.30612244897959184,31.25,31.283334210041737,56.635112817744016,5566.070169991242,0.552366414643047,0.3333333333333333
59.74931566056764,1004.1956018518518,52.63838277520217,28.968869043979872,49.9437699738227,0.660377358490566,0.3584905660377358,31.25,35.29342194704055,63.30639804674556,7019.258638171924,0.5575016591684749,0.3
60.67593269934162,988.8599537037037,45.81660669403824,18.145870293011992,36.3915887253199,0.660377358490566,0.22641509433962265,35.15625,25.731894763483556,59.02248546100219,4771.326466702392,0.4359676581306516,0.26666666666666666
56.555455365193865,1060.905612244898,66.77763406339541,30.41206978111544,57.9838604711085,0.7872340425531915,0.46808510638297873,31.25,40.98039054534613,85.53983003834145,11012.713692875153,0.4790796349136715,0.0
59.24028525687673,1012.8242924528302,64.74616398882829,35.24089907733933,51.50419197371593,0.6730769230769231,0.2692307692307692,39.0625,36.34389122707835,80.94820308307008,9242.479783301062,0.448977121700673,0.26666666666666666
59.858823529411765,1002.3584905660377,85.62987535264949,33.20652392975391,52.30696181395676,0.6153846153846154,0.3269230769230769,54.6875,36.952263227328984,115.87980578181197,13452.365986235362,0.3188844076672492,0.2
61.33777038269551,978.1901041666666,61.12081662567304,24.333724378681573,45.10024465107932,0.7209302325581395,0.27906976744186046,31.25,31.832411613011494,81.33469663250352,8133.833267529583,0.39137554980798206,0.26666666666666666
58.43921429835428,1026.7078488372092,86.68956988203253,33.48154500492365,56.91934712997596,0.7567567567567568,0.43243243243243246,70.3125,39.43225746376719,113.66428098433356,14080.741399342869,0.34691863725599226,0.16666666666666666
59.49644932214332,1008.4635416666666,83.6252820527028,28.986932297077438,50.07983682898919,0.6590909090909091,0.38636363636363635,35.15625,35.41090193092694,114.86704853763284,12778.571974709446,0.3082772856249161,0.26666666666666666
61.47576771940038,975.9943181818181,83.05275164487401,73.71447840999042,89.51290230363132,0.6666666666666666,0.35185185185185186,54.6875,63.271283312872896,99.40304802309171,19758.602188059904,0.6365125071232698,0.23333333333333334
59.90999099909991,1001.5024038461538,60.457895643694314,24.92185800440594,46.206424888541115,0.7254901960784313,0.3137254901960784,50.78125,32.67215815370634,78.09405625175435,8015.777917901464,0.41836933208309784,0.36666666666666664
59.16444444444444,1014.1225961538462,70.34652057466602,29.98618878025948,51.33500393178587,0.7254901960784313,0.35294117647058826,39.0625,36.20611959800657,90.52220124646162,10296.436858740291,0.39996950029340805,0.0
61.30624092888244,978.6931818181819,82.93709197228472,42.35622945310754,62.55276488909399,0.6486486486486487,0.2972972972972973,58.59375,43.18699658340666,108.780291906144,14758.869575857525,0.39701122167118785,0.1
55.10616488504906,1088.8073979591836,70.59879845908951,37.3651269001661,67.17727938249936,0.75,0.625,46.875,47.49467764142595,88.31271320763334,13177.045475158215,0.537801137756469,0.26666666666666666
60.06569685593618,998.90625,77.2768018331666,24.185124506519156,45.94343428223269,0.7083333333333334,0.2708333333333333,39.0625,32.48609848714446,96.79935468908737,9879.157093179394,0.33560242825468717,0.2
62.49194778776064,960.1236979166666,90.81841652553528,43.62048573541623,65.96161542762145,0.7619047619047619,0.40476190476190477,50.78125,46.21263529634686,115.87541398969482,16822.940407911414,0.3988131192390536,0.23333333333333334
62.5541724296911,959.1686320754717,60.50854232840989,24.675436380297327,45.79974225152498,0.7551020408163265,0.22448979591836735,39.0625,32.18373478804674,78.68493377205328,7955.690822849918,0.40902029454941874,0.13333333333333333
57.3218205766135,1046.7218137254902,68.34443019547909,33.08259372861354,55.978075367727676,0.8,0.38,39.0625,39.53788852362061,88.06493132289519,10938.715976526411,0.44896291781177505,0.3333333333333333
59.05071713736507,1016.0757211538462,79.41266741064179,26.23200338307792,46.926034310161256,0.7450980392156863,0.35294117647058826,62.5,33.13642551027263,107.72034425232802,11213.811817321934,0.3076152953304036,0.26666666666666666
56.031720856463124,1070.8220108695652,54.69725684297725,29.911536880946905,56.192099830254904,0.8222222222222222,0.4,39.0625,39.71484610031373,66.76921727691288,8330.652937558802,0.5948077230799907,0.3
57.953152020122616,1035.3190104166667,60.388940171063325,23.995143194636704,46.86084478300806,0.7608695652173914,0.32608695652173914,35.15625,33.02029667276381,78.55147434584545,8148.64099283793,0.4203650784119272,0.2
56.633892423366106,1059.436274509804,42.1448822323141,22.686402349480183,50.25569386273559,0.86,0.38,23.4375,35.46031700409981,44.42022893098649,4948.496630663802,0.7982920812765901,0.3333333333333333
59.92050640365082,1001.3266509433962,68.7763914198174,30.64756548119583,48.013028455225644,0.6346153846153846,0.28846153846153844,39.0625,33.93371247097324,88.05265820861712,9386.933034906946,0.38537976208028185,0.23333333333333334
60.57142857142858,990.566037735849,53.276492401012845,23.537447148516993,45.6058145911158,0.7307692307692307,0.2692307692307692,39.0625,32.24188057701607,68.06370307981298,6894.230690220271,0.47370153427016065,0.23333333333333334
62.38369517058042,961.7897727272727,72.29178699150837,42.602021001311975,63.34191202036947,0.7547169811320755,0.24528301886792453,31.25,44.71958320164962,88.51142234519062,12435.032927556193,0.505240815442387,0.3
61.781483106625714,971.1647727272727,79.57284431043604,26.55936359377991,46.40242104480589,0.7407407407407407,0.2962962962962963,62.5,32.7985461401302,106.76166817094615,11000.687228043627,0.3072127543718534,0.3
58.50571344857896,1025.5408653846155,44.38274899265863,27.079763372646582,50.72524721139231,0.8235294117647058,0.3333333333333333,31.25,35.86554926459158,51.63513722625309,5817.986303142451,0.6945957964135377,0.26666666666666666
60.24404416037188,995.949074074074,49.40465745798476,25.473472378806544,45.52902479799676,0.6981132075471698,0.3018867924528302,31.25,32.12631886453916,60.490225615221675,6105.145836345331,0.5310993394022808,0.36666666666666664
59.46530314097882,1008.9917452830189,78.84976650398077,34.693169211111,57.23586844294641,0.8076923076923077,0.3269230769230769,46.875,40.354438657865266,102.67009515758191,13016.228011974368,0.39304958854793853,0.23333333333333334
56.300129366106084,1065.7169117647059,45.401062629516424,23.646980515490768,47.54726267094669,0.82,0.36,31.25,33.6202656983106,54.17888483994477,5722.43773322637,0.6205418549612375,0.3
60.85399853264857,985.9664351851852,54.050933670889286,29.713851521712243,52.9108300865533,0.7547169811320755,0.33962264150943394,39.0625,37.40184445801101,67.08220905272344,7882.250780740929,0.5575523672545568,0.2
74.9375807145932,800.6663602941177,57.261080125496854,22.47897236212857,40.12092190532992,0.6865671641791045,0.1791044776119403,46.875,28.369656130533052,76.43919349474733,6812.712166561951,0.37114018127994153,0.23333333333333334
74.19754866618602,808.6520522388059,48.93583054552264,25.61991688270988,45.82754892045633,0.7272727272727273,0.2727272727272727,31.25,32.40399770369457,61.6456657426859,6275.538705748308,0.5256492457872307,0.16666666666666666
72.87994248741913,823.2717803030303,44.93633766517418,25.79238429552276,45.81124722812242,0.7384615384615385,0.27692307692307694,31.25,32.39244014333204,55.12294937584537,5609.523661322964,0.5876398217096537,0.13333333333333333
74.14409221902018,809.2350746268656,48.78249740790891,32.64664296123351,53.964032217772214,0.7424242424242424,0.36363636363636365,31.25,38.1376725222743,57.12566980476911,6844.399694114184,0.6676100718400748,0.0
75.04526512429946,799.5174632352941,45.97813684500078,23.697403795214303,41.96319585585167,0.6567164179104478,0.26865671641791045,31.25,29.65309410775636,57.1265554998428,5321.792378483367,0.5190772285900899,0.36666666666666664
74.22965954991344,808.3022388059702,43.99436101317869,27.663684034297756,46.0489879599992,0.7272727272727273,0.2878787878787879,23.4375,32.548532003250216,52.392935800637446,5357.3992567313535,0.6212389419654206,0.13333333333333333
67.89565217391304,883.7090163934427,29.642922496870458,16.459899055271336,36.47692978102735,0.75,0.18333333333333332,23.4375,25.776646264041556,32.57759417033558,2638.1245368463988,0.7912384852382128,0.36666666666666664
71.83767448553749,835.2163461538462,38.48669549856688,29.17352777344219,49.73762335252673,0.71875,0.3125,23.4375,35.16599731953321,41.32796750822868,4565.799736980126,0.8509007202575695,0.2
74.2463746887359,808.1202651515151,42.59867293051578,26.40020686864216,43.917091632984985,0.6461538461538462,0.3076923076923077,31.25,31.04988626895578,48.509919140239795,4731.9531613636345,0.6400729339332042,0.13333333333333333
73.65300784655624,814.6306818181819,43.27532365245254,23.133819084383667,42.53772011064461,0.6923076923076923,0.24615384615384617,31.25,30.043990106692966,52.534213941301836,4958.493193026494,0.5718937784100487,0.13333333333333333
73.7086377309841,814.0158582089553,50.14697538079276,23.44616699637517,42.060608128690944,0.7272727272727273,0.18181818181818182,31.25,29.721429738852773,64.25981612258104,6000.107734059278,0.4625196823183656,0.13333333333333333
68.49252013808976,876.008064516129,45.844774866327185,25.62627814537748,44.28464305665947,0.6721311475409836,0.29508196721311475,31.25,31.288293690139863,56.33702983634631,5537.652494186142,0.5553770545062344,0.13333333333333333
72.84851968956596,823.626893939394,38.58756271667068,24.735682047320907,43.62748987274141,0.6923076923076923,0.2923076923076923,27.34375,30.81544193620096,43.81945168916149,4242.142100556225,0.7032365935291471,0.23333333333333334
72.3688025514642,829.0865384615385,38.359238952535954,21.439939843847803,34.74696655206483,0.5,0.140625,23.4375,24.554648933052654,48.181447699187345,3716.750828960049,0.509628707845298,0.1
72.35831279895638,829.2067307692307,56.18447243391643,33.340841679535345,48.89643659031268,0.59375,0.3125,39.0625,34.5274535633891,70.14949766089313,7609.1998021797535,0.49219815842868725,0.36666666666666664
74.798052134059,802.1599264705883,48.483455882352935,25.659344530595643,43.477211258167344,0.6567164179104478,0.31343283582089554,39.0625,30.742920340975367,60.84608903286965,5876.62070639345,0.5052571304027075,0.36666666666666664
74.48755066589462,805.5037313432836,35.20180838398009,22.728813966837997,37.032978079484856,0.5606060606060606,0.21212121212121213,23.4375,26.179714379520192,40.51867512439457,3332.498888145552,0.6461147680457721,0.3333333333333333
71.18320057929037,842.8955078125,58.563097247454245,36.79881973724902,53.30596221473625,0.7142857142857143,0.1746031746031746,31.25,37.69208939501786,73.68210985433714,8724.933757915518,0.5115500827749329,0.26666666666666666
72.20133063349725,831.0096153846154,54.619965696956335,22.645605809654707,39.48743480303853,0.671875,0.171875,31.25,27.921699502027316,72.53149458397317,6362.361598273696,0.38495966010601135,0.4
73.84615384615384,812.5,40.113696722849255,22.380956654799714,36.605415313699986,0.6,0.15384615384615385,31.25,25.86034632442556,50.14094064174852,4073.584096220608,0.5157531149883062,0.13333333333333333
74.81244547833673,802.0055970149253,39.68836852872553,20.76630541887092,39.61493828975072,0.7272727272727273,0.22727272727272727,23.4375,28.01086601665527,46.32361767389234,4076.419565935048,0.6046778603054138,0.36666666666666664
74.14862492685782,809.185606060606,45.250018271929605,23.93608005197254,42.77985139170254,0.7384615384615385,0.27692307692307694,31.25,30.215399517023975,55.479915171402666,5266.401939858744,0.5446187043306551,0.36666666666666664
69.71757925072046,860.6150793650794,45.55869993399988,25.36489443565752,44.482810029323,0.6774193548387096,0.3387096774193548,31.25,31.453591813778168,56.78142065323463,5610.8204782620505,0.5539416142097947,0.23333333333333334
69.4617067833698,863.7852822580645,35.04043894578195,17.983308727938628,32.88803756469147,0.6229508196721312,0.08196721311475409,23.4375,23.17746038787635,41.417164344849986,3015.755173330236,0.5596100253241589,0.36666666666666664
73.46659051970303,816.6977611940298,45.58086778515136,24.533700922465734,40.00981990612373,0.6515151515151515,0.15151515151515152,31.25,28.290100593897883,56.049800146908716,4981.480479397897,0.5047315158974416,0.13333333333333333
69.54721862871928,862.7232142857143,29.780500143139136,19.46732841166895,37.67704343250033,0.7419354838709677,0.1935483870967742,15.625,26.626789128452998,32.29545149459678,2701.5314763371643,0.8244748995971712,0.3333333333333333
75.89594535677954,790.5560661764706,55.554726905025326,29.659741935580467,45.243288624704974,0.6417910447761194,0.23880597014925373,39.0625,31.983228735059154,72.11965730883762,7246.458863268867,0.44347449680879025,0.23333333333333334
73.64534134821812,814.7154850746268,41.75221931325168,26.164322458671872,46.32928873608645,0.7272727272727273,0.30303030303030304,31.25,32.75451434033615,46.71997928332115,4807.548548875946,0.7010815253513903,0.3333333333333333
70.8038029386344,847.412109375,65.59663795485424,26.568392907455525,44.91176451957666,0.7301587301587301,0.2857142857142857,50.78125,31.73997609343982,87.20826725104111,8695.891764103524,0.36395604561287626,0.16666666666666666
71.9930775886934,833.4134615384615,47.13684264109761,23.59433154469426,38.28573395295441,0.578125,0.1875,31.25,27.05544662181675,60.96034233196762,5181.457942710337,0.4438204509168064,0.16666666666666666
74.13341017144504,809.3516791044776,51.735345007259404,30.91574168376098,46.109195858400454,0.696969696969697,0.18181818181818182,31.25,32.53690675829857,62.66417016421177,6405.387800433766,0.5192266437588728,0.13333333333333333
73.67697594501718,814.3656716417911,51.48876654144422,22.393443258493352,42.08258911170625,0.696969696969697,0.24242424242424243,39.0625,29.73698304832316,65.12165097521871,6083.761501553733,0.45663742554130304,0.2
74.12693770108218,809.4223484848485,56.6457888169698,21.77571509162166,39.480931984752026,0.6615384615384615,0.18461538461538463,42.96875,27.91671726422451,75.21311560410018,6596.412408217626,0.37116820703412867,0.1
73.00590522828749,821.8513257575758,57.878681166422034,31.94267456256691,49.99624384929793,0.6615384615384615,0.3076923076923077,50.78125,35.35268305969478,73.52125244332959,8165.544485414099,0.48084984796667796,0.13333333333333333
73.42894393741851,817.1164772727273,51.87536496581595,21.047728807255833,40.409468943410545,0.7230769230769231,0.27692307692307694,39.0625,28.55244099931266,67.58346236447282,6062.245960455949,0.4224767420960378,0.3333333333333333
71.58753277017186,838.134765625,42.12752423519873,21.468062568829627,36.99907244252405,0.6031746031746031,0.23809523809523808,31.25,26.160972457960064,53.05090830068583,4360.101307449374,0.4931295862020492,0.3333333333333333
67.87597797739785,883.9651639344262,50.290445508062014,27.216656520302,45.81039317006386,0.6833333333333333,0.31666666666666665,31.25,32.32354672115281,61.477847691960854,6242.916630743989,0.5257755099546141,0.23333333333333334
67.94488759970993,883.0686475409836,36.860779254496556,19.705817096242306,36.50480668978173,0.6666666666666666,0.16666666666666666,23.4375,25.7707259664969,43.74728724228539,3541.8295197014627,0.5890816914834288,0.3333333333333333
72.31638418079096,829.6875,30.649274131823944,23.130311098294943,39.66815627263652,0.59375,0.21875,15.625,28.044840704373183,33.22779916721762,2927.5507140970967,0.8440174013102283,0.36666666666666664
75.40282991625759,795.7261029411765,34.765101044319664,19.099656820563244,33.78532993953343,0.582089552238806,0.16417910447761194,19.53125,23.882862951469782,43.07253238863827,3231.741873755775,0.5544801205551971,0.1
81.49125322626901,736.2753378378378,33.28991317415265,18.853242259050763,23.94918055265849,0.1643835616438356,0.0547945205479452,15.625,16.923803232313887,43.69597991417326,2323.214572366825,0.38730801473168175,0.1
74.30469314079423,807.4860074626865,57.69011685427923,23.898382611351195,34.73948040169204,0.4090909090909091,0.16666666666666666,39.0625,24.563238720543488,77.6764575177255,5994.112818325674,0.31622501212723614,0.1
76.13097026133974,788.1155303030303,58.66102752982717,28.993176874349835,40.359332655804344,0.453125,0.1875,27.34375,28.512761220441988,78.56303439569311,7037.321609245822,0.3629284617092779,0.1
78.52760736196319,764.0625,25.490445951795913,11.713680239866564,16.327278422325843,0.1323529411764706,0.0,15.625,11.542556559954287,34.32213389064542,1244.5895929928945,0.3363006681557244,0.1
72.11788500433401,831.9711538461538,38.86060993394043,17.359325529040035,26.222112465034282,0.40625,0.078125,23.4375,18.525552462372136,51.64995291025501,3006.013805570281,0.35867510846643813,0.1
74.82332412389123,801.8889925373135,56.15374311871366,24.344501021915118,33.54774642574687,0.4090909090909091,0.12121212121212122,31.25,23.720509949740546,76.17704839128184,5676.727342561828,0.3113865718175458,0.1
72.85649751543441,823.5367063492064,67.09940989235199,32.422147563515,44.58862154876345,0.5081967213114754,0.11475409836065574,46.875,31.386959263837856,89.02969646529502,8778.776838287098,0.3525448306574079,0.13333333333333333
75.58166862514689,793.8432835820895,60.42430078700693,27.71833712576841,37.9777262656375,0.4307692307692308,0.13846153846153847,31.25,26.834934701135406,81.31771330658064,6855.443771444078,0.3300010982842503,0.0
72.20133063349725,831.0096153846154,60.601719589131825,36.12930693245943,44.65571627020967,0.40625,0.15625,39.0625,31.573410225818357,79.56732683006445,7892.346294035142,0.3968137611717323,0.1
75.59930515344527,793.6580882352941,37.13622031403846,16.965049887568295,23.22274120243396,0.31343283582089554,0.014925373134328358,23.4375,16.417645435445934,50.177333320757946,2588.0241334406314,0.32719246617783276,0.1
74.63881636205396,803.8712686567164,53.67252299718216,25.553929459222765,36.9955016204878,0.5,0.18181818181818182,31.25,26.151198715781042,71.2010466611346,5849.622650211445,0.367286717570906,0.13333333333333333
75.27241279907754,797.1047794117648,77.42065987514451,40.591758809766006,49.04046646134464,0.44776119402985076,0.11940298507462686,39.0625,34.670572306190174,103.28418912191663,11249.79808189188,0.3356813138675566,0.1
71.97231833910034,833.6538461538462,41.920072007693136,15.268063587650948,25.763488199751794,0.515625,0.03125,31.25,18.210174112508803,56.51394061045595,3233.1031581789157,0.3222244620673229,0.13333333333333333
79.37117903930131,755.9419014084507,54.30836872238066,24.44782423230905,33.40765523905305,0.4142857142857143,0.11428571428571428,39.0625,23.519202830574727,70.44966071935292,5205.367259146128,0.33384408938840876,0.1
76.1488719643627,787.9302536231884,56.35676013638234,23.372926381936836,30.83071197703727,0.27941176470588236,0.07352941176470588,31.25,21.75681621636544,76.19756056210156,5208.183575950272,0.28553166342685576,0.1
74.10526315789474,809.6590909090909,50.75185563228721,25.213470082372133,35.086067768308084,0.4307692307692308,0.09230769230769231,39.0625,24.809450873119694,67.40152713968604,5253.355138896838,0.36808440292018074,0.13333333333333333
77.36580965268381,775.536380597015,62.63950861709975,14.985045553373752,20.715310728002425,0.26153846153846155,0.03076923076923077,39.0625,14.53879858176677,86.15466442348365,3935.112817103956,0.16875230933873672,0.1
73.78165938864629,813.2102272727273,58.25307008869965,35.87815881501754,45.81124722812242,0.49230769230769234,0.13846153846153847,31.25,32.39065619762468,76.194434386941,7753.412116690816,0.4251052778098466,0.2
78.03091013165427,768.9260563380282,70.5463878436919,32.71898116256566,41.86383779801574,0.44285714285714284,0.17142857142857143,31.25,29.598416288903437,95.91775248798805,8919.024167525353,0.30858121172730874,0.1
73.37579617834395,817.7083333333334,42.01294321291495,17.988737436413178,30.024028838453837,0.5230769230769231,0.07692307692307693,23.4375,21.186600515894906,54.56889611378374,3632.087637669419,0.3882541525435643,0.1
76.28040880955808,786.5715579710145,59.20750046141066,27.98879245052297,39.451191165476864,0.4264705882352941,0.14705882352941177,31.25,27.89194594477375,79.49188777993919,6965.4871973592835,0.3508778911124645,0.1
78.33309048521055,765.9598214285714,56.75977637207002,28.636657535393546,39.32205435036849,0.4492753623188406,0.15942028985507245,23.4375,27.7975132875617,75.2978743606414,6575.647675160607,0.36916730417149207,0.26666666666666666
73.63160952934341,814.8674242424242,56.67991383199022,40.134873391231444,51.31240337759103,0.4461538461538462,0.18461538461538463,31.25,36.276977438670365,71.81045307257268,8184.056791972408,0.5051768354950821,0.1
73.026941362916,821.6145833333334,74.43441221311548,28.4934365171387,41.847813361907896,0.6,0.13846153846153847,54.6875,29.580984954155735,100.79484865940417,9367.006904487629,0.2934771503463717,0.1
75.1421028109955,798.4871031746031,60.78944433453278,38.024381958706066,47.355567499349895,0.3870967741935484,0.1935483870967742,23.4375,33.48354614335461,79.5395402740692,8366.896482285978,0.4209673079323873,0.0
75.09922346850733,798.9430147058823,51.607350965072186,24.760268240466033,34.01374797498756,0.3880597014925373,0.13432835820895522,31.25,24.023635412681987,68.81452540768827,5193.60265341086,0.3491070420140972,0.1
75.9953434225844,789.5220588235294,55.02917087036987,31.055343003328026,40.13227313540719,0.417910447761194,0.13432835820895522,31.25,28.37588590112861,73.03574302635592,6510.805981135627,0.38852053426619887,0.1
75.39194456474665,795.8409926470588,56.57370241054978,31.256090685138098,40.58371898025927,0.3582089552238806,0.14925373134328357,31.25,28.69275839403984,74.00499553832445,6670.881267278937,0.3877138047955279,0.1
81.42919389978213,736.8364726027397,23.90993291341293,10.320716036820471,16.02673649100413,0.18055555555555555,0.013888888888888888,15.625,11.311556219983107,31.566290800870636,1121.749240437404,0.3583429010186753,0.1
79.23278116826503,757.262323943662,26.10363626227906,12.052021229680243,17.444307107088793,0.2,0.014285714285714285,23.4375,12.3286748393331,34.86548909450586,1350.3987680492157,0.3536068232375913,0.1
72.32686177919443,829.5673076923077,28.44675421632118,16.446001849371438,26.002982335340523,0.4375,0.0625,23.4375,18.352612812489,34.95295342858146,2015.2626379858302,0.5250661535652047,0.13333333333333333
73.11072056239016,820.6730769230769,54.39362608616726,27.966359212122732,38.185966398471,0.484375,0.09375,23.4375,26.984856765236874,71.28482962805307,6043.201925361004,0.37854978269622447,0.1
80.81847413037123,742.4045138888889,43.321864683546686,20.744482866976224,25.323881331048252,0.14084507042253522,0.056338028169014086,15.625,17.900601760152373,58.675392973299004,3299.692809820602,0.30507851508209366,0.1
75.80780955145885,791.4751838235294,66.37593048300408,36.649438408057144,46.04164380303793,0.4626865671641791,0.13432835820895522,31.25,32.55124214588486,87.8482997593347,8983.608118031492,0.37053923906394093,0.23333333333333334
74.28323949761801,807.7192164179105,57.899025481592425,38.77465831982774,45.86789008048665,0.3787878787878788,0.06060606060606061,39.0625,32.42042503907576,74.4981521782688,7587.768596199557,0.43518428432286455,0.1
77.11949505092525,778.0133928571429,49.02959075183162,19.94618383928559,30.43258374723725,0.43478260869565216,0.10144927536231885,31.25,21.517745875967194,65.90870250361233,4455.4277860807215,0.3264780682761559,0.1
74.91046731693113,800.9561567164179,63.74629325531489,37.55409488858168,49.93189016353207,0.5,0.19696969696969696,39.0625,35.267470548363775,82.57272357897541,9148.72966037331,0.4271079966816493,0.1
71.04943625325238,844.482421875,58.36084489107527,20.831856996065184,31.17239868826521,0.4444444444444444,0.12698412698412698,35.15625,21.99175080725223,78.94719629553538,5454.392537654875,0.27856278423019704,0.1
75.78580757509795,791.7049632352941,41.54800007683496,26.64048696978743,34.4263735851979,0.31343283582089554,0.1044776119402985,23.4375,24.341865466617584,53.919075471261515,4123.311710299886,0.45145183321237814,0.13333333333333333
76.9673202614379,779.5516304347826,42.18434563693409,23.725211080498948,32.239615504909665,0.3382352941176471,0.11764705882352941,23.4375,22.79163904485341,54.696671098279346,3916.3935483526016,0.41669152047482455,0.1
76.28040880955808,786.5715579710145,44.60246009962531,11.002451539185916,19.392892295871306,0.3382352941176471,0.0,31.25,13.658593477784866,61.17372489394761,2624.9484421160496,0.22327549125811394,0.13333333333333333
78.36734693877551,765.625,31.112151952568603,10.880980974648528,17.692460498250174,0.2857142857142857,0.0,15.625,12.50423437527713,42.250711454167146,1659.7436067067883,0.2959532264643996,0.13333333333333333
80.2088772845953,748.046875,35.43844114650216,11.794830278047197,18.286713325334265,0.29577464788732394,0.0,23.4375,12.930424905919354,48.77911924104928,1981.511620280277,0.265081147570987,0.1
77.98085291557877,769.4196428571429,33.94472125036979,10.549960421463908,19.705966724500005,0.36231884057971014,0.0,23.4375,13.932152493062569,46.080758346723485,2016.9155283848993,0.30234208361402104,0.1
75.3810623556582,795.9558823529412,33.776791957744415,12.857196967197323,19.699600936370228,0.31343283582089554,0.029850746268656716,23.4375,13.914095270327369,45.54819262855371,1991.0217028540164,0.30548073298532513,0.13333333333333333
77.09048588885656,778.3061594202899,26.671552877454943,8.9111762084859,15.276443142090681,0.16176470588235295,0.0,15.625,10.771484359682187,35.06338959186262,1186.5316440976574,0.3072003159153214,0.0
68.74963904129368,872.7318548387096,58.63803932288454,25.3708934879714,38.77971411636142,0.5737704918032787,0.16393442622950818,35.15625,27.417659953755365,78.79909813599917,6787.3697020769505,0.34794382933717455,0.13333333333333333
76.3903704771515,785.4393115942029,35.20539816738228,14.630291709312138,23.85504295633377,0.4117647058823529,0.029411764705882353,23.4375,16.868062639919994,47.22539927841053,2502.5958281531584,0.3571820015851378,0.1
77.23655443812855,776.8342391304348,26.450981431972533,10.6859779488315,16.814766890143108,0.20588235294117646,0.0,15.625,11.867333617201393,35.147519551064,1310.381356137802,0.33764355973854604,0.1
72.77530509691314,824.4554924242424,48.96349033745917,19.423612425976692,29.343912559965876,0.4153846153846154,0.06153846153846154,31.25,20.7282080175384,66.17762702875349,4309.459676558822,0.3132207809224137,0.16666666666666666
74.81244547833673,802.0055970149253,52.32176872646759,15.284561013056843,23.338648863559243,0.3484848484848485,0.030303030303030304,23.4375,16.36971580181849,68.79969672432483,3538.160552067236,0.23793296455085697,0.1
76.83340582862114,780.9103260869565,38.55959749115516,14.172007302490142,21.437323142813604,0.2647058823529412,0.04411764705882353,15.625,15.157605763301484,52.78103612137354,2513.381368382694,0.2871790111972329,0.13333333333333333
70.36649214659685,852.6785714285714,36.29473132518162,17.956922910608426,27.567846109424348,0.41935483870967744,0.0967741935483871,23.4375,19.480374034450985,47.57100670384889,2911.3170655694894,0.40950098356600184,0.13333333333333333
75.54462606683062,794.2325367647059,27.05036587258221,10.281050580763583,16.804804944313336,0.29850746268656714,0.0,15.625,11.882791532641182,36.65889745259848,1368.5092896994704,0.3241448149935807,0.13333333333333333
74.68039468039468,803.4237132352941,51.36315168314591,17.7092990391397,24.16471312763809,0.29850746268656714,0.05970149253731343,31.25,17.085242039597397,70.95236346286129,3808.35894724467,0.24079877266583732,0.1
75.31583501586387,796.6452205882352,40.77079387756906,16.258695483953872,23.880300947033636,0.34328358208955223,0.04477611940298507,27.34375,16.865780635668486,55.098422744964225,2919.4126595594735,0.30610278471555613,0.13333333333333333
75.68123393316195,792.7989130434783,45.58553841103912,21.068403969981787,30.670172267396293,0.4264705882352941,0.07352941176470588,31.25,21.637730727689757,59.97902896380682,4077.190606884911,0.3607549355416645,0.13333333333333333
77.5310066339775,773.8839285714286,37.696789138493486,17.743424264759508,24.56165757120084,0.3333333333333333,0.028985507246376812,23.4375,17.364761811606847,50.448278895976365,2752.1053691946304,0.3442092018126672,0.13333333333333333
69.69749351771824,860.8630952380952,56.83082277954854,25.164097581228468,36.79133397342851,0.4838709677419355,0.14516129032258066,39.0625,26.014028458251587,76.60259183911884,6260.383640513346,0.33959723599021796,0.13333333333333333
72.87591240875912,823.3173076923077,32.159023638868845,14.285877771804486,21.17137049675664,0.34375,0.046875,23.4375,14.961458600483427,43.078196462212894,2024.7962156624667,0.3473093079374212,0.13333333333333333
77.04565280604827,778.7590579710145,45.33031480806293,15.151508751686155,21.437323142813604,0.27941176470588236,0.04411764705882353,23.4375,15.127096131096312,62.17645765363128,2954.8226204776142,0.24329298744173225,0.1
75.72449271220349,792.3460144927536,34.771210650392845,20.462950008150386,26.679160987075,0.29411764705882354,0.04411764705882353,15.625,18.864840727259626,44.531211466284255,2639.1709719575438,0.42363187764479954,0.13333333333333333
78.17362221899084,767.5223214285714,30.356527370336178,12.397968573543718,18.309862796702163,0.2318840579710145,0.014492753623188406,15.625,12.905125460342703,39.46020760596781,1599.8212809266995,0.32704149935569476,0.16666666666666666
72.86946520989075,823.3901515151515,42.00293671614014,17.766521032565485,26.181515517778802,0.4,0.03076923076923077,31.25,18.493608838256147,56.01438676441253,3254.4014593932816,0.3301581951800576,0.13333333333333333
81.19333816075307,738.9768835616438,25.662625873890835,8.311943577346161,12.824033596088679,0.16666666666666666,0.0,15.625,9.035443043214432,34.74764423091561,986.3355615446932,0.2600303774025473,0.1
76.15048118985126,787.9136029411765,45.85409223306918,16.340444096259322,24.53880213392476,0.34328358208955223,0.04477611940298507,35.15625,17.327833405533028,62.44047291223107,3399.0716573632276,0.27750964394343636,0.1
70.04053271569195,856.6468253968254,61.486681475344454,20.460310901805872,34.55608917240389,0.6451612903225806,0.14516129032258066,46.875,24.407375027115524,83.58643118288803,6409.242884404076,0.29200164047812877,0.1
72.55813953488372,826.9230769230769,38.30346120825825,12.235684145751206,19.94197056314662,0.359375,0.015625,23.4375,14.069099996747317,50.0374385620853,2211.623820896981,0.2811714668265983,0.13333333333333333
77.84535186794092,770.7589285714286,34.20426639943429,14.869115346808714,21.405745855165662,0.2463768115942029,0.028985507246376812,15.625,15.132759803133952,45.97380416216608,2185.639107736287,0.32916048778028645,0.13333333333333333
73.88794567062818,812.0404411764706,60.79970761448071,20.161094379088155,31.034412603189384,0.54,0.06,31.25,21.942140267787234,83.95737211246698,5787.455920683778,0.26134858340246936,0.1
76.29139072847681,786.4583333333334,35.50779516545737,9.759540708453722,16.518566870966385,0.2647058823529412,0.0,31.25,11.679260526517021,48.793375394356225,1790.3011120106742,0.23936160251516284,0.1
78.33309048521055,765.9598214285714,35.665598789613554,13.188604871884996,20.017718883366264,0.2753623188405797,0.028985507246376812,23.4375,14.152626804347593,48.51883805128127,2157.2343107304046,0.2916934405846484,0.13333333333333333
77.78903197800608,771.3169642857143,28.227783065033318,11.431764106402655,18.01766538293597,0.30434782608695654,0.0,23.4375,12.738149148998195,37.90286703284802,1516.7998054584177,0.3360734990827698,0.13333333333333333
77.1859296482412,777.34375,32.7686250031675,11.331518118837684,18.042195912175803,0.2608695652173913,0.014492753623188406,27.34375,12.757759076995718,44.49252864858384,1783.2464081785333,0.28673935747191537,0.13333333333333333
79.70020178725858,752.8211805555555,43.6985365787817,35.656502309543846,41.05817607521357,0.28169014084507044,0.04225352112676056,23.4375,29.027405524650522,54.842260192812894,5001.1909639086925,0.5292890085601282,0.13333333333333333
72.84851968956596,823.626893939394,41.74192583434506,11.902073233824165,19.92982731553194,0.3076923076923077,0.0,23.4375,14.071742524822973,57.0571760091105,2522.365546416369,0.24662528903596795,0.13333333333333333
77.85265562535693,770.6866197183099,46.267680162919376,17.29334581481164,26.592026656432726,0.45714285714285713,0.07142857142857142,31.25,18.766103044727522,62.35838747850207,3676.3668862265067,0.300939517578082,0.1
79.61987041036717,753.5807291666666,28.762118968809563,8.743472942481924,13.04648295248867,0.08450704225352113,0.0,15.625,9.16072046502651,38.78565605105453,1116.2221739202384,0.23618835924724396,0.16666666666666666
80.69084628670122,743.5787671232877,29.695454102781895,9.68329492939371,16.053161466065042,0.2222222222222222,0.0,23.4375,11.347149706945634,40.58072683632858,1446.6267075431338,0.2796191835772509,0.16666666666666666
79.74617825209114,752.3871527777778,25.30329830795545,15.276279963733028,18.956100252841424,0.1267605633802817,0.014084507042253521,15.625,13.40308370870114,32.8441742626933,1382.9706084964912,0.40808100704560246,0.1
71.60068846815834,837.9807692307693,75.31330946187794,37.0804523391869,60.92372640813368,0.78125,0.46875,39.0625,43.01173054573106,95.52795572188202,12908.247181244324,0.4502528105066381,0.2
63.57615894039735,943.75,68.58515878586138,45.953227011113796,77.10119258095598,0.8113207547169812,0.5094339622641509,46.875,54.44060437438223,80.8803185769297,13832.977285469087,0.673100765826,0.3333333333333333
66.83103698332124,897.7864583333334,70.28778018393925,39.04970524441101,69.69924418406923,0.7796610169491526,0.5084745762711864,42.96875,49.24921887709803,86.080507822766,13318.460892437826,0.5721297436871409,0.13333333333333333
66.85042797040477,897.5260416666666,73.93850141233884,37.169789745358564,62.0264768634932,0.7457627118644068,0.3898305084745763,46.875,43.85844290385526,95.84779188431727,13206.42270404292,0.4575842806769076,0.13333333333333333
68.48266935135914,876.1340725806451,79.97860006018782,34.310865111169,61.97751639443236,0.8032786885245902,0.5081967213114754,50.78125,43.823879976594604,103.69444403642906,14276.317095185412,0.422625150111213,0.3333333333333333
68.63170231467917,874.2315573770492,81.50605094223083,43.82284789501923,79.06610077551075,0.847457627118644,0.576271186440678,54.6875,55.83277850184033,99.78154975523434,17502.067663828835,0.5595501236330663,0.3333333333333333
66.91838512924775,896.6145833333334,62.52223996668217,32.8822031400226,55.64387712920748,0.6949152542372882,0.3898305084745763,39.0625,39.34337756841341,79.92738746115518,9879.094302227906,0.49223900365233814,0.16666666666666666
70.2439024390244,854.1666666666666,111.93157211134606,45.668667374210486,71.73323809139396,0.7580645161290323,0.43548387096774194,62.5,50.72298083238154,150.3064685031076,23951.477637939362,0.3374637255304341,0.2
72.02423892656182,833.0528846153846,65.7303588596138,31.77957049858004,54.232200691073515,0.71875,0.421875,31.25,38.316469145591086,83.93876367499695,10104.106683683214,0.45648121878407544,0.2
71.78618373010077,835.8154296875,114.7574561154643,46.898942508059555,69.99487341275402,0.6984126984126984,0.4126984126984127,97.65625,49.49377196223351,153.2253926296656,23824.90450597431,0.32301285780912486,0.2
68.41379310344827,877.016129032258,52.46295488261797,36.17670303127573,65.57039345972476,0.8032786885245902,0.4918032786885246,39.0625,46.35810535557611,54.95185678478636,8003.094081855697,0.8436130836694591,0.1
69.13895745607667,867.8175403225806,88.40280743960578,29.16765894656509,53.37265982795551,0.7868852459016393,0.3770491803278688,70.3125,37.64867850298373,117.88597495901178,13943.177274362124,0.3193652045213516,0.13333333333333333
73.1210949122285,820.556640625,99.9913092651474,61.604026975850566,88.74958293007408,0.7903225806451613,0.4032258064516129,54.6875,62.69461572256264,124.82550565592324,24585.74945094242,0.5022580552998356,0.3
62.97798877859301,952.7138157894736,77.13769030644201,40.43641687378151,70.0484874718806,0.7857142857142857,0.5,54.6875,49.528223965819585,98.13558224157704,15269.651704975682,0.5046918032635465,0.13333333333333333
67.12308812818645,893.8802083333334,77.23834972463979,60.2834605608934,86.25529016135164,0.8103448275862069,0.46551724137931033,39.0625,60.98426320890883,83.98802052377428,16091.072795205922,0.7261066855557831,0.26666666666666666
70.1420701652653,855.406746031746,92.22756283968583,36.862689595894935,64.18623720763665,0.8387096774193549,0.4838709677419355,70.3125,45.37593968704067,122.75374905106351,17498.88066650576,0.36965013319605444,0.1
62.941606907654034,953.2645089285714,51.7905171990535,34.0334506314033,61.07211239126921,0.7636363636363637,0.4727272727272727,35.15625,43.175042455845364,58.79841150934885,7975.322236101123,0.7342892664537477,0.3
67.7511961722488,885.5932203389831,107.16558855504762,43.83334126485599,70.96055517415996,0.75,0.4642857142857143,70.3125,50.162723988531724,143.67442001566155,22641.77327906385,0.3491416494534213,0.3333333333333333
67.70920653273595,886.1424180327868,73.4712685102801,43.32162552175556,79.06980779797263,0.8333333333333334,0.6166666666666667,46.875,55.905945282071244,88.39237567133782,15524.68060882283,0.6324747452194494,0.26666666666666666
68.80305478043766,872.0543032786885,79.47305118837963,33.09851652535592,57.49094611383221,0.7627118644067796,0.3898305084745763,62.5,40.651267390252215,103.26454349289793,13187.886244407478,0.3936614254538202,0.16666666666666666
70.52948773138183,850.7080078125,61.64139837787919,34.924474728014374,64.78343616381024,0.8095238095238095,0.49206349206349204,42.96875,45.76816942223639,72.55683064761618,10432.579891355308,0.6307906369907033,0.3333333333333333
70.582056892779,850.0744047619048,61.99975184076406,31.806991487701243,57.90505886132809,0.7741935483870968,0.45161290322580644,46.875,40.94350860158849,76.02286985736697,9778.656463485777,0.5385683108044477,0.2
72.35683792138967,829.2236328125,85.69153351754086,36.5623207325043,59.64695253382674,0.7258064516129032,0.3548387096774194,66.40625,41.88057686569835,111.55336742883733,14677.267599955623,0.37543086175695245,0.2
66.74391657010429,898.9583333333334,53.11861685508408,37.428337516170295,60.71163596046282,0.711864406779661,0.4406779661016949,31.25,42.85510822014318,58.549707245583406,7882.739899628515,0.7319440222030467,0.3
66.69414188990285,899.6292372881356,84.49670433505716,65.52882624025017,102.70527790284625,0.8947368421052632,0.6140350877192983,46.875,72.38256710658398,90.9132535825658,20673.35940209656,0.7961717819376843,0.13333333333333333
69.46858342755613,863.6997767857143,96.38593023560655,82.60816957940204,113.90639014183634,0.75,0.5576923076923077,70.3125,80.53389138185189,108.68144765674204,27496.915052637756,0.741008636876176,0.13333333333333333
74.57391304347827,804.570895522388,75.96707887437493,31.610211610747196,55.5598710050562,0.8181818181818182,0.3484848484848485,46.875,39.28355154081387,100.44325715218741,12395.995350854126,0.39110192813931827,0.3
67.66031195840554,886.7827868852459,79.94327411130287,35.22851369392886,65.05206248331665,0.8,0.5,46.875,45.785960366324815,98.52220231479974,14171.516016891363,0.4647273334393071,0.3333333333333333
68.16893342877594,880.1663306451613,75.64021769673342,40.84569521573288,68.87475872811866,0.819672131147541,0.47540983606557374,42.96875,48.65724643196844,94.78635837437422,14489.16102828119,0.513335961698082,0.13333333333333333
62.70301793264324,956.8917410714286,58.68651643577076,35.171670745604196,67.42821572285732,0.8727272727272727,0.5454545454545454,39.0625,47.67799641012491,68.79562136771378,10304.541363532428,0.6930382408392709,0.3333333333333333
64.1105354058722,935.8836206896551,67.85638720503707,36.21742229147751,57.09195654549757,0.7368421052631579,0.3333333333333333,39.0625,40.365921346929746,87.58684833286839,11107.175693527264,0.460867380380232,0.26666666666666666
70.6232666763976,849.578373015873,67.6792556319042,37.220188636790034,62.55510423641084,0.7419354838709677,0.46774193548387094,54.6875,44.222278458471195,85.33756042957314,11855.80946142593,0.5182041557769476,0.1
74.5631067961165,804.6875,66.99163482129251,33.42625534919574,52.303445024910936,0.6417910447761194,0.3283582089552239,39.0625,36.858083308314065,84.30173103588761,9761.557401838747,0.43721620962472785,0.1
70.7942848363804,847.5260416666666,94.01537599453665,40.43985039037644,65.72347978429124,0.7894736842105263,0.40350877192982454,54.6875,46.4719013044594,123.31710849983159,18003.777903544466,0.3768487752412948,0.16666666666666666
70.04784688995215,856.5573770491803,111.42359148139111,46.19300023393039,74.35278652751879,0.8813559322033898,0.4915254237288136,70.3125,52.56702143193633,150.02174968597814,24775.217086553028,0.35039600285937433,0.23333333333333334
70.1319031743731,855.530753968254,62.218379281077965,34.57033029774464,58.24408435107519,0.7096774193548387,0.3709677419354839,46.875,41.146215797846594,76.89837651016138,9940.241669290266,0.5350726200625252,0.1
68.87892376681614,871.09375,68.21972342411321,30.331048895915956,57.99946230848843,0.7868852459016393,0.4426229508196721,42.96875,41.010213251230255,86.86905015862615,11191.981231396923,0.4720923410160933,0.3333333333333333
69.86859205776173,858.7549603174604,89.20989946968488,31.528214912287872,62.68872715326715,0.8548387096774194,0.532258064516129,85.9375,44.18411287091669,115.43494184310943,16023.349324119668,0.3827620317162584,0.3
67.56598240469208,888.0208333333334,79.00116335069939,45.36068096652711,77.33311592278092,0.8135593220338984,0.5423728813559322,62.5,54.67307028409941,98.03174452465112,16837.983019397845,0.557707817495294,0.16666666666666666
70.40577096483318,852.202868852459,85.46810941763849,40.9242405655656,69.47625360235426,0.711864406779661,0.5932203389830508,62.5,49.114279733509086,109.69682781653054,16925.89806698256,0.44772743853316704,0.13333333333333333
79.80372348102179,751.8446180555555,33.69083837473198,17.15420358266292,28.4265911207531,0.4788732394366197,0.056338028169014086,27.34375,20.100032982007814,43.186542563506585,2727.0624243324883,0.465423527536393,0.3333333333333333
79.22126979514746,757.3723591549295,28.453412079380495,17.28470022206291,28.674566217605754,0.5714285714285714,0.05714285714285714,23.4375,20.27582663682939,34.2952787591675,2184.5539732344882,0.5912133497795069,0.4
79.20976176641489,757.4823943661971,30.79099019787447,18.463815641467278,29.749113694780892,0.5142857142857142,0.11428571428571428,15.625,21.01788013751928,36.77357974810767,2428.1454171579294,0.5715483855933509,0.4
80.4476969436074,745.826198630137,22.9902456761915,11.929350391802535,20.443123005348415,0.4027777777777778,0.013888888888888888,15.625,14.455267283153447,28.902693979375137,1312.5453679243374,0.5001356376491644,0.36666666666666664
75.85185185185185,791.015625,33.15578372426754,17.768318702239217,32.26827460797018,0.6268656716417911,0.1044776119402985,23.4375,22.813391145009483,40.02778833295998,2868.806881424359,0.569938837370745,0.3333333333333333
81.3582934262081,737.4785958904109,23.552788865733476,16.155149991767654,29.82026690260101,0.5277777777777778,0.06944444444444445,15.625,21.084856583925667,26.0080756663073,1722.7757265803118,0.8107042156617716,0.16666666666666666
81.26395129728947,738.3347602739726,25.67199660030275,15.100408990389468,23.091338347614844,0.3333333333333333,0.027777777777777776,15.625,16.326419430957507,32.227019175823386,1652.9547303164989,0.5066065633276298,0.3
83.92831123415415,714.8958333333334,27.698541502918324,12.826302828114393,22.059729172916708,0.3783783783783784,0.013513513513513514,15.625,15.572839113608843,35.337289271005716,1728.8244707884633,0.4406913896020421,0.4
80.17160017160016,748.394691780822,20.68848644523632,16.41828755830443,26.953439511047463,0.5138888888888888,0.041666666666666664,15.625,19.05880541532839,20.317038004701992,1216.48271308755,0.9380700774846015,0.3333333333333333
81.14633087277464,739.4049657534247,18.39570841057526,11.217749985520907,20.669932117692113,0.3611111111111111,0.027777777777777776,15.625,14.612626622858008,21.360164582229654,980.5793762330599,0.6841064621297355,0.3333333333333333
83.46632346632347,718.8527960526316,25.988297799730642,20.00976324197765,27.42176371060038,0.38666666666666666,0.02666666666666667,15.625,19.334074159656858,27.377806172762156,1662.9220701215206,0.7061951581384227,0.1
81.69022293457671,734.4820205479452,21.030558834874363,16.326599716843774,26.81153682548698,0.5277777777777778,0.05555555555555555,15.625,18.95613524472435,22.9993772560621,1369.6693842509746,0.8242021091996287,0.36666666666666664
79.90751445086705,750.8680555555555,22.38506416358963,15.981264980545095,27.64469077882844,0.5211267605633803,0.08450704225352113,15.625,19.543876720907683,24.21499771359151,1486.7742117134203,0.8070980204940511,0.23333333333333334
80.63282036530994,744.1138698630137,26.113013698630137,20.03004102048257,35.84869765087553,0.6388888888888888,0.1527777777777778,15.625,25.33213080513505,25.135698672220045,2000.38024039092,1.0078148666355593,0.4
81.5848406546081,735.4307432432432,22.109189379575042,14.219644253170127,23.685898308519075,0.4246575342465753,0.0273972602739726,15.625,16.727760124444714,25.249365837591913,1326.8998336473746,0.6625021884525903,0.4
81.93771626297577,732.2635135135135,17.530425018739713,14.737005355750323,25.635386718870215,0.4520547945205479,0.0547945205479452,15.625,18.12126830425312,16.563309895329827,942.9433255065734,1.0940608138571732,0.4
83.64798141155968,717.2916666666666,18.25266342817459,12.415199394329465,20.205833497977085,0.33783783783783783,0.013513513513513514,15.625,14.282805377429524,21.400751472859746,960.267907108313,0.6673973760006913,0.3333333333333333
81.37010159651669,737.3715753424658,50.26002154465297,13.952744241682149,24.446592910831495,0.4722222222222222,0.041666666666666664,39.0625,17.28481907824005,69.21378080503148,3758.4370792843283,0.24973088996438028,0.1
82.72296423955191,725.3125,17.998842555379312,14.319241413163828,22.7952544959205,0.36486486486486486,0.02702702702702703,15.625,16.10138245210842,18.70722213369392,946.2858405134016,0.8607040819335718,0.4
83.58585135328654,717.8248355263158,26.913530022016335,14.477293044243075,25.113673856752488,0.4266666666666667,0.02666666666666667,19.53125,17.745671420565262,32.74016497786438,1825.2534249495948,0.5420153329270976,0.4
79.59694832301713,753.7977430555555,21.513673817803426,15.26755904133138,25.35780483096024,0.4507042253521127,0.04225352112676056,15.625,17.91986844247291,24.274176617932397,1366.5615503111935,0.7382276533835022,0.36666666666666664
79.18659601890305,757.7039930555555,39.633266193653974,25.31909972164571,37.387043787036745,0.5211267605633803,0.14084507042253522,23.4375,26.420139358662635,48.3730858211977,4015.029768402059,0.5461743634946067,0.36666666666666664
77.19701321079839,777.2321428571429,39.123676584841895,17.776628700302968,26.451708416854476,0.37681159420289856,0.043478260869565216,31.25,18.665588913696684,51.38116093695642,3012.97468154653,0.36327690097541704,0.3333333333333333
77.65419615773509,772.65625,32.911998378657984,24.726041898901702,35.178259012574756,0.5507246376811594,0.057971014492753624,15.625,24.868471364817275,39.19976931333129,3062.5449695054544,0.6344035130931206,0.23333333333333334
81.96134987020478,732.0523648648649,20.33724331592652,17.05962587843363,26.21588414178733,0.4383561643835616,0.0547945205479452,15.625,18.534957876573344,22.092162308023003,1286.4108705225617,0.8389834194655621,0.36666666666666664
84.35901141783495,711.2458881578947,19.071092044256872,10.793194872490517,20.472129173993277,0.44,0.0,15.625,14.474294743901455,22.655232256834424,1030.1863794064711,0.6388941229916096,0.36666666666666664
73.51414068165337,816.1695075757576,22.314464849484562,13.429305503330212,22.09708691207961,0.4,0.015384615384615385,15.625,15.621301337384562,26.04265284128777,1278.0631243848782,0.599835256131,0.2
77.74403470715835,771.7633928571429,27.443785671271065,20.547698290777834,32.72936327766848,0.5507246376811594,0.11594202898550725,15.625,23.131934800798373,30.84555843886831,2241.58116876752,0.7499275737426739,0.4
82.79430789133247,724.6875,27.26819919796685,19.6881254647188,26.148780275220425,0.2972972972972973,0.02702702702702703,15.625,18.45604066209131,30.23124049147234,1752.8484913406605,0.6104956449702225,0.36666666666666664
80.58645968089694,744.5419520547945,26.0136992500559,14.003282569201936,23.41940852682936,0.4166666666666667,0.013888888888888888,15.625,16.52995660633697,30.179661265071132,1567.241586764698,0.5477184273591618,0.3333333333333333
80.60963335729691,744.3279109589041,30.74452803249225,21.755304119876868,32.539059894791144,0.4444444444444444,0.09722222222222222,23.4375,22.97978811383446,35.75917102760326,2581.5666085414105,0.6426264215156408,0.13333333333333333
85.002156101768,705.8644480519481,22.690554029081177,16.3478046290907,27.490209269380657,0.4868421052631579,0.02631578947368421,15.625,19.42750210875004,24.893099406600495,1519.3079517983329,0.7804372525664188,0.4
85.66280566280567,700.4206730769231,22.196968170027148,15.605882004527363,24.960652883491047,0.42857142857142855,0.03896103896103896,15.625,17.64051238562529,23.816992899145074,1319.9211726120534,0.7406691709707193,0.36666666666666664
75.09922346850733,798.9430147058823,23.38450070197493,19.22241701025641,28.633463521009038,0.43283582089552236,0.04477611940298507,19.53125,20.222726351858164,24.1497979394961,1534.2745430819336,0.8373869794904016,0.26666666666666666
78.95742832319722,759.9031690140845,25.926313319708914,14.998604845832448,27.82578936115611,0.6142857142857143,0.05714285714285714,15.625,19.675804349141977,31.101768976734142,1922.5049169383828,0.6326265352900209,0.36666666666666664
80.4361549497848,745.9332191780821,24.12690373452372,14.42611966546897,25.878394419728895,0.5138888888888888,0.041666666666666664,15.625,18.25756303498542,26.753068750788085,1534.497859783047,0.6824474307997879,0.16666666666666666
84.72637538104223,708.1620065789474,27.02480657466364,14.985525423628703,21.80046826714203,0.28,0.013333333333333334,15.625,15.403992538011407,33.186525670987486,1605.997852995517,0.464164061364157,0.36666666666666664
74.36912848677554,806.786380597015,40.46192174897371,20.46966507691031,35.594127039932424,0.696969696969697,0.12121212121212122,31.25,25.16884860035167,51.77654783370209,4093.9856097428205,0.4861051895771411,0.3333333333333333
81.40554668215479,737.0505136986301,23.640642827869144,21.579246113270074,34.240088000793506,0.6111111111111112,0.1388888888888889,15.625,24.20835891151305,22.989008612997285,1748.378531988062,1.053040577740546,0.36666666666666664
83.11688311688312,721.875,24.63932535940598,14.951724903644896,23.278599862769795,0.40540540540540543,0.013513513513513514,15.625,16.431821993563144,29.79824784007594,1538.2478693906783,0.5514358455487384,0.36666666666666664
65.79352403078263,911.9438559322034,32.858198997842024,20.308640902963088,31.216307267831265,0.5,0.05172413793103448,23.4375,22.06586355573839,39.29266687331227,2723.844478606527,0.5615771417827994,0.16666666666666666
64.82899141318586,925.5118534482758,41.03878700587857,14.90633346965189,25.28364990072896,0.45614035087719296,0.05263157894736842,31.25,17.877977604783766,55.43485699604169,3113.516654419551,0.32250426128203663,0.13333333333333333
65.93713620488941,909.957627118644,36.427434034002964,15.068029772271727,25.04963548514422,0.49122807017543857,0.03508771929824561,15.625,17.6266506965886,46.548643649600564,2577.6663485020863,0.37867162852853303,0.36666666666666664
65.68942633829819,913.3890086206897,34.27826326281104,13.82758694642718,21.38289680486589,0.3333333333333333,0.017543859649122806,27.34375,15.119680716523282,46.22425043881147,2195.6462501824444,0.32709412425275974,0.16666666666666666
65.93713620488941,909.957627118644,30.389228725773876,16.38066170270436,28.704957923240368,0.5517241379310345,0.034482758620689655,15.625,20.270412313111123,37.19685022596997,2368.7466948296365,0.5449496984279275,0.36666666666666664
64.19709634843818,934.6217105263158,55.23557556240421,20.74512309759052,33.44026398789874,0.5535714285714286,0.125,46.875,23.625251125281633,74.81295558792088,5552.686045599729,0.31579090733177917,0.1
66.00436999271668,909.0307203389831,75.11085325789753,30.380055068104447,45.28318773625613,0.6140350877192983,0.17543859649122806,31.25,32.01990244932584,102.51230942173459,10312.071003800947,0.31235178126361673,0.13333333333333333
66.09294320137694,907.8125,34.58152919490885,17.408451726212707,30.377109852092605,0.5423728813559322,0.0847457627118644,19.53125,21.47904406355044,44.2568150758648,2986.37938181422,0.4853273789975888,0.13333333333333333
66.67631312400522,899.8697916666666,35.70154840914836,12.623278906581554,22.53744970711743,0.423728813559322,0.01694915254237288,15.625,15.874374545175538,46.646644650417706,2326.3063467305756,0.3403111770233915,0.13333333333333333
66.15773058072182,906.9234913793103,37.92205034485456,17.702688728862462,27.3388545116428,0.45614035087719296,0.05263157894736842,31.25,19.32274147460483,50.317218144099805,3054.4656013553836,0.38401847692111757,0.13333333333333333
64.48176027793862,930.4956896551724,32.84870921266418,16.38901380461913,28.937164893289104,0.5614035087719298,0.03508771929824561,23.4375,20.460747405069007,42.01753634845463,2700.8592416530946,0.4869573321811748,0.16666666666666666
66.57997399219767,901.171875,27.725203882722695,16.729450334441083,26.070340852007106,0.3898305084745763,0.05084745762711865,15.625,18.432374615657068,34.81010418581846,2015.7491445068788,0.5295121932776738,0.16666666666666666
64.64264619019492,928.1798245614035,49.485051224648274,14.615849167085708,24.394523431243744,0.44642857142857145,0.0,31.25,17.11246339251518,66.37928061293441,3568.575965794734,0.2577982652794931,0.13333333333333333
65.19712230215828,920.2860169491526,39.56979024757398,15.28454520743996,27.980952958187036,0.5689655172413793,0.05172413793103448,15.625,19.77726672128315,49.771331904278604,3092.3981593712538,0.39736261748669405,0.36666666666666664
66.43598615916954,903.125,34.504962656358096,15.142887128176783,26.149582192355307,0.4915254237288136,0.05084745762711865,27.34375,18.48461933400141,45.23817505855993,2627.032591879893,0.40860665378462846,0.13333333333333333
66.34260614934114,904.396186440678,39.948609085574176,15.355603448275863,24.318914808372856,0.41379310344827586,0.05172413793103448,15.625,17.195014436673432,53.761320160223896,2904.1720550140644,0.31983988461271856,0.3
65.88919587029228,910.6197033898305,46.526582649346054,14.080963734237047,25.294600418761856,0.5517241379310345,0.034482758620689655,39.0625,17.88496905005355,63.559890326611296,3571.2578234528255,0.2813876637947164,0.1
65.43851917144116,916.8911637931035,41.43389904834171,15.539402735526394,25.6619798957729,0.40350877192982454,0.05263157894736842,27.34375,18.124783585965616,55.852648059808075,3180.28814914852,0.32451072985039586,0.13333333333333333
68.3613016197286,877.6895491803278,24.70064618649415,15.047374371545041,25.174359423743702,0.48333333333333334,0.03333333333333333,15.625,17.798817158805925,30.271547320023757,1692.6830087587823,0.5879718327788458,0.36666666666666664
65.03723171265878,922.5484913793103,31.760528144968546,14.32799818571489,24.83498169496957,0.42105263157894735,0.03508771929824561,23.4375,17.551353594089676,41.53525922661382,2290.221111409507,0.42256516321062476,0.13333333333333333
64.31026884089907,932.9769736842105,55.08640868754663,20.120263813973157,32.17790902530914,0.5357142857142857,0.07142857142857142,31.25,22.69840707523743,74.00550898367659,5277.269860703349,0.3067123973195566,0.1
66.90866850588064,896.7447916666666,34.91210558105069,14.576507915278112,28.278330861144774,0.6440677966101694,0.06779661016949153,15.625,19.9692564526856,44.653400223990175,2801.3430913119914,0.4472057301911144,0.13333333333333333
64.58542342874004,929.0021929824561,52.70897600968049,17.32384104495021,29.82229735689149,0.5178571428571429,0.10714285714285714,31.25,20.99505088327244,68.7664401580605,4535.689819405647,0.30530954976024727,0.36666666666666664
68.3613016197286,877.6895491803278,70.96951186709205,34.20193968112611,52.11587525049349,0.7,0.25,46.875,36.85102872569992,94.2352171439829,10909.697890879777,0.3910536829282717,0.1
65.04672897196262,922.4137931034483,32.14184246618396,13.86692968195366,26.17836926823097,0.543859649122807,0.0,23.4375,18.50988755004379,41.89462902377285,2436.194745560263,0.4418200609806204,0.36666666666666664
64.59495351925631,928.8651315789474,66.2861596427192,29.737335236089308,39.836089949943634,0.42857142857142855,0.10714285714285714,31.25,28.165605431461803,89.94053093378773,7958.375207719984,0.31315809612238904,0.13333333333333333
62.91398478642481,953.6830357142857,31.384238148747468,14.434222688023002,25.501016579558335,0.41818181818181815,0.03636363636363636,23.4375,18.031941750556275,40.53575105872134,2296.3103994950147,0.4448404502098567,0.3333333333333333
64.48176027793862,930.4956896551724,44.82519006775747,15.209493419496791,29.45066542675984,0.6140350877192983,0.08771929824561403,31.25,20.816644833630164,59.62360099846181,3899.2295858835323,0.34913431065941825,0.1
63.60248447204969,943.359375,21.861543214228707,13.465129916084162,23.199549674802665,0.41818181818181815,0.0,15.625,16.401791257561218,26.41701773834468,1361.2094044149283,0.6208797457766697,0.1
61.199652274702984,980.3977272727273,56.3932977305426,18.309365763375432,32.07109930887355,0.6296296296296297,0.09259259259259259,46.875,22.673999568921992,76.86636165178936,5475.380836745203,0.29497948233372856,0.1
64.71910112359551,927.0833333333334,35.49599281909791,12.515436100449667,20.457927209624287,0.3392857142857143,0.017857142857142856,23.4375,14.44439632315266,48.1720108304747,2185.9692278511825,0.29985039183821677,0.16666666666666666
65.45775165319618,916.6217672413793,40.18819618909129,17.52028638297675,27.221098668483208,0.5087719298245614,0.05263157894736842,27.34375,19.232601484277463,53.410702817846406,3227.128049983654,0.3600889048374621,0.13333333333333333
67.57247944612722,887.9354508196722,23.87674326099939,14.0625,24.705294220065465,0.45,0.03333333333333333,15.625,17.468310531641606,29.184681006801313,1601.6061477253265,0.5985438226160746,0.36666666666666664
63.321554770318016,947.5446428571429,41.06778904681718,18.27148521615395,30.622245933679118,0.5272727272727272,0.07272727272727272,31.25,21.641779933453176,53.50477255060667,3637.7711255286213,0.4044831685432104,0.13333333333333333
68.91880156317846,870.5897177419355,32.98548415501115,13.829595273251115,23.671137401942463,0.4262295081967213,0.01639344262295082,23.4375,16.722334778636746,43.445522637529066,2282.400282591658,0.38490352430912356,0.1
66.54721691878396,901.6154661016949,38.33049960395353,17.02321904954696,28.317409371116195,0.5517241379310345,0.05172413793103448,23.4375,20.008929025038864,50.29569409532312,3161.5825241359835,0.39782588519639195,0.1
64.56637168141593,929.2763157894736,25.152914872001848,13.68539214262773,22.60905645076216,0.42857142857142855,0.0,15.625,15.972096908004028,31.627477180986556,1586.9979300571517,0.5050069854324628,0.13333333333333333
63.06158357771261,951.4508928571429,22.377162562235963,14.42023739001191,24.794968904085067,0.43636363636363634,0.05454545454545454,19.53125,17.52233024105088,25.53778180125504,1405.8044244567266,0.6861336030441672,0.3333333333333333
65.16899180209981,920.6832627118644,45.208126965158954,16.351283303333535,25.99223037506958,0.41379310344827586,0.06896551724137931,23.4375,18.35458631131015,61.07939324736625,3521.9986681592654,0.30050374333247987,0.1
64.23071377072819,934.1325431034483,42.94087234784398,16.498686387943156,25.724493946738573,0.45614035087719296,0.05263157894736842,23.4375,18.106117480513156,56.989366825244446,3241.6717659914148,0.3177104517766415,0.13333333333333333
71.26576772509787,841.9189453125,27.818910952847848,19.286324109340843,38.424855159748084,0.7142857142857143,0.2222222222222222,23.4375,27.170475649568772,27.725135243879024,2366.577805848798,0.9799943412563621,0.3
70.05067323005646,856.5228174603175,33.79119565020817,18.869260632394038,35.21919767798019,0.6451612903225806,0.14516129032258066,23.4375,24.893530193726708,40.32179308706698,3153.379198214852,0.6173716069613776,0.36666666666666664
71.18320057929037,842.8955078125,30.481179465329014,21.416425542595615,40.69029017814626,0.746031746031746,0.2222222222222222,23.4375,28.769039483217217,31.47286248818357,2844.5362926918956,0.9140903371601011,0.3333333333333333
72.04502814258912,832.8125,26.671861973882628,19.53125,35.21046167445302,0.65625,0.109375,15.625,24.896957712573535,27.2739063354862,2133.2585702324627,0.9128489848988003,0.3
70.92640692640693,845.947265625,28.587397302227092,17.591652407048947,34.25246468220288,0.6190476190476191,0.15873015873015872,19.53125,24.21237097392596,32.40334736944855,2464.773798615459,0.7472182024241903,0.36666666666666664
71.63151097718467,837.6201923076923,34.519264248965975,21.506558149946525,40.38295532838932,0.734375,0.203125,23.4375,28.552974122458643,39.71583458790143,3562.582396782449,0.7189317414257911,0.3333333333333333
69.79803808424697,859.6230158730159,27.768918655314295,18.008576018090288,39.27612954860176,0.7903225806451613,0.24193548387096775,23.4375,27.76083780886644,27.036439022963727,2357.9355565866304,1.0267934244331303,0.3333333333333333
73.0795847750865,821.0227272727273,40.74790359388851,30.266036417558777,44.816583335043774,0.6153846153846154,0.2,27.34375,31.62976530800298,42.03587424519312,4177.013955904873,0.7524469486112781,0.3333333333333333
70.7732181425486,847.7783203125,32.12258876850321,18.2557204559305,33.968442659712714,0.6349206349206349,0.1111111111111111,23.4375,24.006347923960828,38.44846023326577,2899.71236698382,0.6243773555121573,0.3333333333333333
81.39372822299651,737.1575342465753,59.8397046404334,24.55519584749027,41.6463166451028,0.6666666666666666,0.25,39.0625,29.380747355854663,77.70370104447325,7172.23343696067,0.3781125861564659,0.13333333333333333
72.74397244546499,824.810606060606,26.61747201536523,15.737391637820105,34.026312817322825,0.7230769230769231,0.09230769230769231,15.625,24.05648362886394,29.001484831146882,2191.8067120617084,0.8294914473836825,0.3333333333333333
71.40034863451481,840.33203125,33.40000795832556,20.52846423281278,38.22261767571822,0.7142857142857143,0.15873015873015872,23.4375,27.026903171755166,39.11580672393059,3321.2261594738884,0.690945820509447,0.3
72.30590961761298,829.8076923076923,39.9888315353071,20.658033677739105,35.947582654894454,0.59375,0.140625,31.25,25.41863290550138,49.542428449009364,3956.210148199175,0.5130679641928139,0.3333333333333333
71.97231833910034,833.6538461538462,30.077869845417407,17.743078440406542,33.73030476400497,0.65625,0.125,23.4375,23.8507710390195,35.57328720607249,2665.4853181890344,0.670468571005383,0.3333333333333333
74.20824920680704,808.5354477611941,30.850204225131893,16.6192507336972,33.11771825338524,0.7272727272727273,0.09090909090909091,23.4375,23.41536967900423,36.330128654249506,2672.5006977441344,0.6445165636996816,0.3333333333333333
70.95712429623214,845.5810546875,36.375929030781855,21.332248789927757,41.28123441686499,0.7619047619047619,0.25396825396825395,23.4375,29.190109086913683,40.61217322265384,3724.275676255349,0.7187526982828679,0.3
68.02381298097866,882.0440573770492,26.378222513740624,19.600138927149004,37.88592646985377,0.7,0.2,23.4375,26.785439787573306,26.14740901419071,2200.2767747724506,1.0244013000690173,0.3333333333333333
69.45157526254376,863.9112903225806,31.85986268569274,17.78151064734488,35.95475797306442,0.7049180327868853,0.13114754098360656,23.4375,25.413528246758737,37.16037883901188,2966.845763440113,0.6838877600483177,0.3
71.47766323024055,839.4230769230769,49.23984150557435,26.707466821604395,44.34497085837003,0.75,0.28125,31.25,31.21899019899266,53.539487989853775,5251.011116410137,0.5831021433172642,0.3333333333333333
71.13169319826339,843.505859375,33.856416285182,18.195814295163366,39.64105284218001,0.7777777777777778,0.19047619047619047,23.4375,28.016738511154472,38.4370595924682,3383.1215883695713,0.728899109562595,0.3333333333333333
71.89975514907101,834.4951923076923,41.67675851651357,21.41455663189555,37.58179961893332,0.65625,0.203125,31.25,26.57084053589395,51.731246752276235,4318.253274056524,0.5136323248332461,0.3333333333333333
70.65114273393704,849.2431640625,27.713724964617978,17.035639643923012,32.58554827449135,0.6190476190476191,0.09523809523809523,15.625,23.017423062883957,30.888681847195144,2233.602815343282,0.7451733672789945,0.3
67.73482287226224,885.8072916666666,36.72959909168304,19.315387309744853,40.40336379738781,0.7966101694915254,0.1864406779661017,27.34375,28.563968468685314,43.68880732782574,3920.4742583016596,0.6538051783915991,0.3333333333333333
70.93664309424159,845.8251953125,35.7545174765565,23.151986170863026,42.66611952657927,0.7301587301587301,0.2857142857142857,23.4375,30.16325774024432,40.6000544814235,3847.2883210546674,0.7429363858131146,0.3333333333333333
72.24312590448625,830.5288461538462,52.12800106298423,35.76056002995487,48.63242030464349,0.65625,0.109375,31.25,34.290678468156884,59.25630450608829,6383.524273752017,0.578684053181779,0.3
70.12665684830634,855.5947580645161,29.189299656853645,20.211323303871787,39.0625,0.7540983606557377,0.21311475409836064,23.4375,27.620022449608978,30.923384700389306,2683.2486728027397,0.8931759158065663,0.3333333333333333
72.49427917620137,827.6515151515151,36.96746410102236,27.85403246623687,48.66378594499199,0.7692307692307693,0.2923076923076923,31.25,34.40671445830143,36.08912892432113,3900.941842663936,0.9533816826239359,0.3333333333333333
71.04943625325238,844.482421875,38.01623103187501,21.453731417320054,40.49936694219126,0.7142857142857143,0.25396825396825395,19.53125,28.630798122570063,43.262066408712066,3891.2630222169,0.6617991348837748,0.3333333333333333
71.27355796687607,841.8269230769231,42.54943500657439,22.569146928701013,42.91322762249967,0.71875,0.28125,23.4375,30.344111486574086,52.44358562579653,4999.386063887515,0.5786048212471592,0.3
73.30151843817787,818.5369318181819,43.15227367863138,21.122408895397765,43.249194078751785,0.7384615384615385,0.3076923076923077,35.15625,30.55864309045128,51.64102748110975,4957.683679068149,0.5917512602093289,0.3
70.15224010439321,855.2827380952381,31.584799519034416,20.97532830829601,40.29067222880742,0.7419354838709677,0.22580645161290322,23.4375,28.489668220399395,34.403317055841434,3079.1977602486477,0.8281081784688565,0.3333333333333333
71.31746952988972,841.30859375,26.91754189909711,16.20286009033837,35.09074033194015,0.746031746031746,0.09523809523809523,19.53125,24.81274550584169,29.095126738198207,2268.0099065420886,0.8528144843330655,0.3333333333333333
75.86287042417199,790.9007352941177,39.339953233515985,18.435311729451186,34.88637606680618,0.6567164179104478,0.14925373134328357,27.34375,24.633092623538392,49.127446689028496,3801.832733369902,0.5014120269564026,0.3
72.24312590448625,830.5288461538462,25.92645867151089,17.885696198625354,33.28918075988147,0.609375,0.078125,23.4375,23.538372405704767,28.39125593593906,2099.4759644378296,0.8290711921591579,0.3333333333333333
71.77570093457943,835.9375,28.28480242244805,23.089043784251736,36.53962291771427,0.609375,0.140625,15.625,25.81664458984587,27.6558637861451,2243.039368811333,0.9334962302923753,0.3
73.37579617834395,817.7083333333334,52.05965370795237,34.790223517058116,52.398883851148526,0.7538461538461538,0.2,31.25,36.95165848401036,58.59396572938591,6802.001146787915,0.6306393162509301,0.3333333333333333
71.09054093144344,843.994140625,31.249046311131234,18.527466334366956,40.78541664386294,0.7777777777777778,0.20634920634920634,23.4375,28.83951137628007,33.57456197090074,3041.9223654094585,0.8589691028962771,0.3333333333333333
71.53543880075681,838.7451171875,28.248399655409433,18.301991855531586,35.7878396839769,0.6984126984126984,0.1111111111111111,15.625,25.296099296865382,30.816159356367056,2448.9614079299813,0.8208712514864007,0.3333333333333333
70.11157803216925,855.7787698412699,38.29416481273568,26.577846075070013,51.70815814696567,0.7741935483870968,0.3870967741935484,31.25,36.54755246454327,38.87221146346348,4463.21100769536,0.9401974080866178,0.3333333333333333
72.44231606443188,828.2451923076923,25.801904157175972,21.567444165388455,35.21046167445302,0.609375,0.140625,15.625,24.895162107817487,26.33495479935473,2059.668886480749,0.9453276945980359,0.3333333333333333
77.38317757009345,775.3623188405797,38.6963317278033,20.887188671530925,33.68287169450128,0.5441176470588235,0.11764705882352941,23.4375,23.816832776527658,49.43809641127632,3699.0961516582015,0.48175060338883285,0.23333333333333334
79.80372348102179,751.8446180555555,85.30875042193523,34.16057266980375,49.37577999027344,0.5774647887323944,0.2112676056338028,39.0625,34.913602067510965,116.22468864592877,12748.02544920439,0.3003974669605101,0.16666666666666666
79.50539180445723,754.6657986111111,28.218273497350047,15.569885189812533,28.137834512875074,0.5211267605633803,0.056338028169014086,19.53125,19.89630145688169,32.7777515064629,2048.808577295623,0.6070062936732762,0.26666666666666666
82.1811785400176,730.0941780821918,26.691276527104673,18.227874871557034,26.55739329996242,0.3055555555555556,0.05555555555555555,15.625,18.77891289304161,32.23478167494043,1901.7133412262385,0.5825667777871282,0.2
79.2319816592635,757.2699652777778,40.81000851994643,23.519238131300725,36.44392111180576,0.49295774647887325,0.16901408450704225,27.34375,25.769626290031862,51.759959867313746,4190.365679681002,0.4978679727745558,0.13333333333333333
79.6887159533074,752.9296875,25.09467952110421,22.86032823550035,34.267798590608045,0.49295774647887325,0.15492957746478872,19.53125,24.230992759753764,25.292545358620263,1925.3674172928663,0.9580290325147248,0.23333333333333334
76.48960739030022,784.4202898550725,37.839057304666554,16.494577072466097,29.989514481903406,0.6176470588235294,0.07352941176470588,23.4375,21.200186221560124,49.0041970356751,3263.7946475670615,0.4326198061387756,0.23333333333333334
77.22529874672107,776.947463768116,80.45150318072712,32.666681211773756,43.49815908460955,0.47058823529411764,0.16176470588235295,54.6875,30.75612662086788,110.35238484647047,10662.602918003939,0.2787083094185761,0.13333333333333333
75.47911547911548,794.921875,43.42329350708854,40.738874493111254,63.16691751449949,0.7164179104477612,0.417910447761194,23.4375,44.660884930858884,41.97080946126638,5888.769319349133,1.064093962068449,0.13333333333333333
80.33706232747349,746.8532986111111,36.88964833776202,16.38675162762514,26.824002752750708,0.5070422535211268,0.09859154929577464,23.4375,18.967274658366957,48.96665808464599,2917.798325803683,0.3873508097199377,0.2
83.28513591671486,720.4166666666666,35.910164724706505,16.554983189762034,25.927042217707438,0.4189189189189189,0.08108108108108109,23.4375,18.329387192564162,47.37576489384587,2728.0608487975055,0.38689374691120093,0.2
77.82281412854661,770.9821428571429,58.50130888231372,23.665845305776994,35.94931280334311,0.5652173913043478,0.14492753623188406,46.875,25.383539582410073,77.84866983411253,6208.022050032062,0.3260625985838907,0.2
77.72296015180265,771.97265625,72.61942268530824,53.36318134504248,72.772364653704,0.7333333333333333,0.2833333333333333,46.875,51.457503050825295,83.08658945736218,13431.65454816025,0.6193238088949591,0.2
77.13055954088954,777.9017857142857,24.86611150291718,17.639802621513084,29.697033175696284,0.5217391304347826,0.08695652173913043,15.625,20.98049786576172,26.76751128375753,1764.304967381267,0.7838045772485633,0.23333333333333334
78.9803012746234,759.6830985915493,44.859562161654566,22.88926183950452,34.14339591158149,0.4714285714285714,0.12857142857142856,31.25,24.1139881567653,57.89931817148261,4386.239740809582,0.41648138386269046,0.2
75.1559633027523,798.33984375,69.8208041123106,56.27335428567204,77.47778789554785,0.6,0.4,35.15625,54.496426495317536,71.49107484161605,12239.670441551529,0.7622829369407428,0.26666666666666666
82.1271676300578,730.5743243243244,29.76971311249437,15.389391062630454,24.157740488582508,0.3972602739726027,0.0547945205479452,15.625,17.071370889035524,38.310815089453584,2054.6585633714617,0.4456018711472163,0.2
79.5556222789371,754.1893115942029,38.65456628791134,28.54881507373041,38.22564401124757,0.4626865671641791,0.13432835820895522,23.4375,26.94446655285644,46.12558326867139,3904.4631962706526,0.584154489622621,0.13333333333333333
77.05317471692705,778.6830357142857,64.3655916507593,22.452762541888802,33.45112650694044,0.4492753623188406,0.17391304347826086,31.25,23.652298896895108,88.55078787482324,6579.844966428596,0.2671043303457713,0.16666666666666666
81.00563502384048,740.6892123287671,42.72546581877071,18.48571131861706,29.173641279177186,0.4166666666666667,0.125,23.4375,20.608322644979705,55.994419674302726,3625.2441945838395,0.36804243645795637,0.2
78.5646836638338,763.7019230769231,55.96936487038318,44.485843980465646,65.8218174752564,0.6612903225806451,0.3709677419354839,39.0625,46.48083782690683,62.385382533576916,9109.754280891064,0.745059755013765,0.2
81.21686223381138,738.7628424657535,44.080255408002934,20.181124891601858,29.634913220679795,0.3888888888888889,0.125,31.25,20.946056444468148,58.90937848585239,3876.4713897724887,0.35556403721859886,0.2
80.70052539404553,743.4895833333334,59.64053380520201,34.79862469033399,46.404994025541725,0.5070422535211268,0.18309859154929578,42.96875,32.81097969291374,78.27216908590984,8068.195999778779,0.41919088324869497,0.13333333333333333
78.67263021209061,762.6540492957746,39.366471285957715,21.836530039466915,31.78942908168194,0.4142857142857143,0.11428571428571428,23.4375,22.428454356282828,48.38970908069092,3409.590554794864,0.4634963669420471,0.16666666666666666
79.64280570358635,753.3637152777778,30.280825960203394,20.51441189034685,29.290455576042387,0.4507042253521127,0.08450704225352113,23.4375,20.682814959517067,36.55372368163475,2375.1505554937053,0.5658196450696619,0.2
81.23499142367066,738.597972972973,29.68497692173373,17.270477192233493,26.923911170604516,0.3835616438356164,0.0821917808219178,19.53125,19.034319764317036,37.59834582746396,2248.3088592357008,0.5062541807467842,0.2
80.09269988412514,749.1319444444445,54.41642195775476,23.29474269565974,34.15472396981456,0.4788732394366197,0.11267605633802817,35.15625,24.14990889967038,73.5801599016899,5582.466129949182,0.3282122372652758,0.16666666666666666
78.46884443804865,764.6346830985915,64.1015315206857,28.24542846397484,39.78133241210182,0.5,0.15714285714285714,39.0625,28.120681534956326,86.6342134262517,7653.589258564226,0.3245909488044738,0.13333333333333333
75.82017010935601,791.3461538461538,59.145607561854895,27.335242463181338,39.149209318679446,0.5079365079365079,0.09523809523809523,39.0625,27.60256220468682,77.83224548390567,6749.301516383007,0.3546417302118637,0.23333333333333334
78.62725306416726,763.0941901408451,39.744803608381005,20.023764679628883,30.069789545382115,0.44285714285714284,0.08571428571428572,23.4375,21.25537451729646,52.23530257918396,3488.0503796347234,0.4069158876810419,0.2
80.11209715086407,748.9505597014926,34.72660669918268,20.533908449352303,30.982520044300053,0.45454545454545453,0.10606060606060606,23.4375,21.85608317248454,42.42877358022952,2913.283075790416,0.515124085101267,0.23333333333333334
80.03473729917499,749.6744791666666,35.1426840145441,15.760023372493684,26.711599971985585,0.43661971830985913,0.056338028169014086,23.4375,18.88538918185009,46.200508147405756,2741.0853845086285,0.4087701616093705,0.2
78.72942535373953,762.1038732394367,33.50134001100893,18.513334187271393,29.171980808400967,0.5142857142857142,0.1,23.4375,20.627101585879284,42.882130922139,2778.8457385178745,0.4810185767897559,0.16666666666666666
77.63176895306859,772.8794642857143,49.36329802721577,22.492694822172133,34.58229656207416,0.4782608695652174,0.2028985507246377,31.25,24.41980100196632,64.72489161213713,4965.503874201426,0.3772860856732149,0.13333333333333333
80.4910914807606,745.4241071428571,43.42780068079275,22.018095827008253,30.523494371380643,0.4264705882352941,0.10294117647058823,23.4375,21.522126414838898,53.08401746499441,3589.2097106574383,0.40543514682232545,0.16666666666666666
76.14562354763748,787.9638671875,47.196714752032314,21.663444719085557,31.016613611748078,0.42857142857142855,0.07936507936507936,39.0625,21.91785464532059,62.95342011999364,4334.781832126724,0.34815987127535913,0.16666666666666666
80.160137260509,748.5017123287671,58.2148498844404,25.25928869128675,34.82920800806056,0.4444444444444444,0.1527777777777778,39.0625,24.601063342317126,78.47111643984528,6064.759499691851,0.31350469393634683,0.13333333333333333
77.23806664665265,776.8190298507462,55.361713533495156,50.26769362681335,63.58729708803118,0.5692307692307692,0.23076923076923078,39.0625,44.94726297317318,65.0697887538367,9188.244015263828,0.6907547086592157,0.26666666666666666
76.40138408304499,785.3260869565217,40.004685625648044,24.903254767624126,37.154698521756934,0.5735294117647058,0.11764705882352941,23.4375,26.24016495037814,45.95415897503901,3788.27288752406,0.5710074024993266,0.2
77.89714285714285,770.2464788732394,30.598891010747135,17.848770358664108,27.88838964131336,0.4,0.05714285714285714,23.4375,19.697316956393127,37.747311090713225,2335.839328521661,0.5218203995791149,0.23333333333333334
64.22145328719724,934.2672413793103,20.156191670269276,19.962088832935866,25.952423840170006,0.3508771929824561,0.017543859649122806,15.625,18.30783299836099,17.03315392862498,979.6746852549451,1.0748351758621668,0.16666666666666666
64.20294032862496,934.5366379310345,33.07658717082078,38.619224266132285,49.938713124495926,0.5263157894736842,0.22807017543859648,15.625,35.30548514708758,30.530562231425968,3386.311133206432,1.1563981324505923,0.16666666666666666
64.55652173913043,929.4181034482758,25.168040332169532,20.24708240355675,30.661956308966694,0.5087719298245614,0.12280701754385964,15.625,21.65006241807635,27.200732505719813,1850.0762374254548,0.7959367422742656,0.0
65.23466743449467,919.7563559322034,21.61575098242782,17.39694850549056,24.210492891637596,0.27586206896551724,0.034482758620689655,15.625,17.087313822951934,22.600628696074498,1213.232927684995,0.7560548006312686,0.3
63.15971721252345,949.9725877192982,24.655818883518485,19.020342597270385,27.063293868263706,0.39285714285714285,0.05357142857142857,15.625,19.071436931512345,26.81403706280924,1606.5546152321867,0.7112482498192787,0.23333333333333334
66.28308400460298,905.2083333333334,20.98577043531852,17.397368994008094,23.831435151436402,0.3050847457627119,0.03389830508474576,7.8125,16.77602505520606,20.546563992043282,1082.8745423567852,0.8164881029111546,0.36666666666666664
65.1609128145114,920.7974137931035,20.125563249590257,22.776728592663364,29.913525154437725,0.39285714285714285,0.03571428571428571,7.8125,21.100235430039284,15.704207222804053,1041.0059003067272,1.3436039865418783,0.3
64.51911935110081,929.9568965517242,12.644430714117819,11.045142334378168,17.28441575409844,0.22807017543859648,0.0,7.8125,12.221543317686896,12.218468715545768,469.12945894688033,1.0002516356355864,0.23333333333333334
64.02092186989212,937.1936274509804,47.179383074938514,50.91019910993362,61.0488265940929,0.4791666666666667,0.16666666666666666,15.625,43.16665848740509,47.748341893849314,6475.250871352326,0.9040451830425882,0.23333333333333334
64.40717177559283,931.573275862069,14.816810344827585,11.055342560348565,15.863044175201239,0.15789473684210525,0.017543859649122806,7.8125,11.145881874403493,14.962309856101559,523.9175578984058,0.7449305609627016,0.3333333333333333
64.8951048951049,924.5689655172414,16.320184516013967,13.725315534122858,19.108640592284104,0.2631578947368421,0.017543859649122806,7.8125,13.4948071438022,18.17498295422235,770.5318007858117,0.742493524081525,0.2
64.4910959895758,930.3609913793103,23.270077431130044,21.12791643347963,25.410385782040095,0.17543859649122806,0.017543859649122806,7.8125,17.852214922773364,19.554680659465532,1096.7122826886148,0.912938197951697,0.3333333333333333
62.64821558630736,957.7287946428571,22.477395257072153,16.860980938322637,27.73162398327945,0.4727272727272727,0.07272727272727272,15.625,19.588372047547505,24.42727560835826,1503.2224366673477,0.8019057205399102,0.13333333333333333
66.3231850117096,904.6610169491526,48.87970603967599,28.176097640774977,46.21937330546575,0.6724137931034483,0.25862068965517243,31.25,32.646482969968034,60.48087582972282,6203.036627155642,0.5397819148962157,0.13333333333333333
64.08286577470868,936.2877155172414,14.780642573612864,10.146247545680783,15.243421880797136,0.2631578947368421,0.0,11.71875,10.774804828417512,17.981703958380738,608.6815365893634,0.599209332628107,0.13333333333333333
64.04601006470165,936.8265086206897,32.803662691510134,30.768987708553404,38.10504223093123,0.43859649122807015,0.08771929824561403,11.71875,26.91014883894198,28.409757627393,2401.781532446616,0.9472150094302431,0.26666666666666666
63.45267430062328,945.5866228070175,20.590254340146846,17.45144617311595,27.463068748580987,0.4642857142857143,0.07142857142857142,15.625,19.41831988258357,19.39425006250784,1183.1355793302141,1.0012410802169796,0.26666666666666666
63.43362831858408,945.8705357142857,27.417675215487158,21.501782642545486,28.56681019427836,0.3148148148148148,0.037037037037037035,7.8125,19.99565757631625,27.173666965155107,1707.00114357858,0.7358468624038396,0.16666666666666666
64.18443804034582,934.8060344827586,34.95517582609611,36.584356292369336,40.752898367219814,0.2982456140350877,0.017543859649122806,7.8125,28.697594467786566,24.991447227945173,2253.132713875417,1.1482966234823415,0.3333333333333333
64.21219547354764,934.4019396551724,34.20620215944884,31.92324568935907,44.29098483573489,0.5614035087719298,0.10526315789473684,15.625,31.200667046612732,27.92153068457149,2736.862473124966,1.1174411388503562,0.23333333333333334
64.27705627705627,933.4590517241379,65.9289927014408,101.26101685757462,113.55857802996917,0.45614035087719296,0.15789473684210525,15.625,80.29798209905485,48.16084964261244,12149.226933670703,1.667287489629495,0.0
64.23071377072819,934.1325431034483,18.068155799228958,14.99679755108545,19.331489415055064,0.14035087719298245,0.03508771929824561,7.8125,13.66633474179159,20.413408437981726,876.4304378950126,0.6694783374031574,0.23333333333333334
63.8006230529595,940.4296875,19.78421560969089,15.103146844650341,21.00155647589905,0.24528301886792453,0.018867924528301886,7.8125,14.806016252461562,19.637067610495652,913.4078293245636,0.7539830562353423,0.23333333333333334
63.743886171631836,941.2667410714286,20.93145398804134,16.30928318407633,23.820178357660144,0.3148148148148148,0.05555555555555555,15.625,16.838438155215886,24.513925775074547,1296.7747500836663,0.6868927608623585,0.13333333333333333
63.832020997375324,939.9671052631579,50.92933230887203,76.8845216000825,87.5621228335268,0.43636363636363634,0.12727272727272726,15.625,61.91177871159471,33.027630067599944,6423.926534700847,1.8745449971698112,0.36666666666666664
63.56323508058661,943.9418859649123,20.38946740311306,19.061229021488362,24.124962412072865,0.26785714285714285,0.017857142857142856,7.8125,16.985749168777257,19.57902320630449,1044.7818041062537,0.8675483444601979,0.13333333333333333
64.74418604651163,926.7241379310345,9.49407876438906,7.760629203339949,12.0231838134979,0.12280701754385964,0.0,7.8125,8.496701611748282,10.31062570989873,275.2233401787789,0.8240723551424248,0.13333333333333333
65.87961616749055,910.7521186440678,41.44491693295022,21.666333863496554,36.60077112110458,0.6551724137931034,0.13793103448275862,31.25,25.85943800599248,52.47090034249572,4262.726523492041,0.4928338914941231,0.13333333333333333
63.8006230529595,940.4296875,24.059931630380703,15.030289963751914,26.279297748646883,0.42592592592592593,0.018518518518518517,15.625,18.57522829029934,28.19677751447854,1645.4455300197637,0.6587713181324104,0.2
64.47128129602356,930.6469298245614,42.61706093946276,45.2186706643715,60.221242193794346,0.6181818181818182,0.2,15.625,42.55251298165267,40.9184608903149,5470.088783918639,1.039934348843618,0.26666666666666666
64.63145676146256,928.3405172413793,27.339436660815405,33.0622107393086,40.766033870660756,0.2982456140350877,0.08771929824561403,7.8125,28.773102971041883,21.04059957479984,1901.9306795536306,1.3675039472498303,0.23333333333333334
64.14746543778801,935.3448275862069,29.935763756657547,24.266449573195235,29.01107858941223,0.24561403508771928,0.05263157894736842,7.8125,20.513930400109246,25.98208500299836,1674.4521817757236,0.7895413473453695,0.36666666666666664
64.72537053182215,926.9935344827586,15.391009544273382,14.995544842771768,21.656569214249494,0.2982456140350877,0.03508771929824561,7.8125,15.282807453121947,13.366825100363116,641.7727602417448,1.1433386266651147,0.0
63.54478153578168,944.2160087719299,36.392835408197705,57.04260615201168,63.99917928986891,0.35714285714285715,0.08928571428571429,7.8125,45.25382358879844,25.385258704896216,3608.9988688698254,1.782681205453701,0.26666666666666666
64.62208037139126,928.4752155172414,20.091727755453036,17.251234519079695,24.899572133557044,0.3508771929824561,0.07017543859649122,7.8125,17.574350730625348,20.55144224583116,1134.6749495549277,0.8551395332943257,0.26666666666666666
65.0473729543497,922.4046610169491,16.88904530032047,14.848613986552444,20.413789235423096,0.1724137931034483,0.017241379310344827,7.8125,14.354059056850451,14.734538437795765,664.4482125491824,0.9741777197465962,0.16666666666666666
64.52846588439809,929.8221982758621,18.37878876068346,16.65281951604439,24.791827914852288,0.3333333333333333,0.03508771929824561,7.8125,17.503658882166174,17.51331548203274,963.046117632243,0.9994486138346292,0.3333333333333333
62.50254323499492,959.9609375,23.440406255823685,17.080928994951606,27.308215547040717,0.43636363636363634,0.05454545454545454,15.625,19.258556043702487,24.56277666342621,1486.1103330243661,0.7840545190633245,0.3
64.55652173913043,929.4181034482758,18.463001821853922,11.192135779930704,21.507725050365167,0.45614035087719296,0.0,7.8125,15.18848155394196,20.47313854148886,976.8967304683626,0.7418736273953536,0.2
65.16899180209981,920.6832627118644,35.86816148798876,20.501148386755265,29.069248613929606,0.3620689655172414,0.10344827586206896,7.8125,20.50535173115058,44.5170159925804,2867.7622360181695,0.46061828884865474,0.1
55.2177485620378,1086.607142857143,65.02627142751848,47.377199278551615,74.05703717044238,0.8928571428571429,0.4642857142857143,46.875,51.88231829986365,70.92104850588059,11559.642261998772,0.7315503562466606,0.16666666666666666
nan,nan,nan,--,nan,nan,nan,nan,nan,nan,nan,nan,nan
51.13182423435419,1173.4375,25.387620014487375,21.035800027869158,40.969095631646546,0.75,0.25,15.625,21.572970736693865,21.57297073669385,1462.0754384535,1.0000000000000007,0.3410059676044331
54.357937310414556,1103.794642857143,59.419668012767026,20.77294137421285,38.377139775352674,0.6521739130434783,0.2608695652173913,54.6875,24.214724076931542,77.30100670370005,5880.503966246121,0.31325237677367135,0.16666666666666666
56.82341335087142,1055.9027777777778,56.3356686454363,19.13244428369186,31.992383784149435,0.5641025641025641,0.10256410256410256,31.25,22.620257590939154,59.50463427624168,4228.615615180843,0.38014278830666987,0.13333333333333333
nan,nan,nan,--,nan,nan,nan,nan,nan,nan,nan,nan,nan
51.891891891891895,1156.25,0.0,--,nan,nan,nan,0.0,nan,nan,nan,nan,nan
51.40157480314961,1167.2794117647059,48.16386950946287,19.080491877519457,37.87249888606507,0.78125,0.21875,35.15625,26.77099640990781,62.51430347803024,5257.675826668868,0.4282379378875443,0.23333333333333334
57.65765765765766,1040.625,69.06886282906358,73.78057331064103,100.58119679362291,0.75,0.25,15.625,66.10397656550956,43.0352822979115,8937.213124661335,1.5360414300969412,0.19227071716977504
50.976202039825154,1177.0198170731708,33.83944628409423,19.030323133891667,33.48312185285533,0.5263157894736842,0.15789473684210525,23.4375,23.588502482341227,39.36216428873133,2916.9515316246056,0.5992684322262785,0.13333333333333333
53.89473684210526,1113.28125,3.90625,--,nan,nan,nan,3.90625,nan,nan,nan,nan,nan
54.857142857142854,1093.75,12.757759076995718,0.0,31.25,1.0,0.0,15.625,0.0,0.0,0.0,nan,nan
nan,nan,nan,--,nan,nan,nan,nan,nan,nan,nan,nan,nan
60.71146245059288,988.28125,74.21875,--,nan,nan,nan,74.21875,nan,nan,nan,nan,nan
57.08788806296459,1051.0110294117646,34.537305566279294,29.720604714878455,44.07893458284051,0.5,0.3333333333333333,7.8125,30.6750494515358,39.76154032448562,3831.7603965922353,0.7714753805109945,0.1679919363870534
52.00902934537246,1153.6458333333333,38.582115599034,22.597961127103396,48.752238824911174,0.8823529411764706,0.29411764705882354,31.25,34.4485245071878,37.58561899005944,4067.6371457381997,0.9165347128192479,0.2167708370967159
51.60659743433109,1162.6420454545455,62.74969491793078,35.9195682920149,64.3445265656554,0.6666666666666666,0.5,39.0625,43.351749517152314,86.96220674221473,11843.690591408611,0.49851252792677514,0.07821666014861166
52.602739726027394,1140.625,11.048543456039805,--,nan,nan,nan,0.0,nan,nan,nan,nan,nan
52.01970443349753,1153.409090909091,31.650965845393735,24.56765919806407,50.630786706311405,0.8333333333333334,0.3333333333333333,23.4375,33.40040452703297,21.78802152432488,2286.2272406329384,1.5329709716755895,0.23653709690136404
51.77903436276642,1158.7701612903227,52.06436092184165,30.9538868525841,50.294812280802,0.7037037037037037,0.3333333333333333,39.0625,35.30329758274783,58.114358344847375,6445.3809810166895,0.6074797793216613,0.13333333333333333
53.40751043115438,1123.4375,22.316963839196408,6.4777827936628904,18.73371688794031,0.5,0.0,11.71875,12.582127662817504,21.88023095938285,864.8800152689257,0.5750454684950178,0.3561887800534283
nan,nan,nan,--,nan,nan,nan,nan,nan,nan,nan,nan,nan
62.950819672131146,953.125,0.0,--,nan,nan,nan,0.0,nan,nan,nan,nan,nan
52.672890074299865,1139.1059027777778,60.17314214389767,26.45329167691054,39.61305565627852,0.5806451612903226,0.12903225806451613,42.96875,27.846356790987166,74.62358865820289,6528.214061188021,0.37315756708688114,0.26666666666666666
55.25179856115108,1085.9375,31.25,15.30280044732376,33.79688377171143,0.8571428571428571,0.14285714285714285,15.625,22.81813426368401,34.39963171299654,2465.9473334586255,0.6633249580710796,0.11515430677107323
56.888888888888886,1054.6875,62.5,0.0,125.0,1.0,1.0,62.5,0.0,0.0,0.0,nan,nan
nan,nan,nan,--,nan,nan,nan,nan,nan,nan,nan,nan,nan
nan,nan,nan,--,nan,nan,nan,nan,nan,nan,nan,nan,nan
53.70629370629371,1117.1875,24.079742199097563,15.934435979977453,29.646353064078557,0.6,0.0,15.625,20.846350100197398,30.378472023786816,1989.5086228998207,0.6862211530545177,0.11193194537721064
nan,nan,nan,--,nan,nan,nan,nan,nan,nan,nan,nan,nan
54.08450704225352,1109.375,0.0,--,nan,nan,nan,0.0,nan,nan,nan,nan,nan
